#Parameters = {h=1.5; l=55; n=10; w=50; wp=3; x=13}
#"Frequency / GHz"	"S1,1 (15) [Magnitude / dB]"
#----------------------------------------------
1.0000000000000	-0.40726775268353
1.0089999437332	-0.41662121704743
1.0180000066757	-0.42752880582514
1.0269999504089	-0.44001617801908
1.0360000133514	-0.45410768337667
1.0449999570847	-0.46983048570955
1.0540000200272	-0.48721001216734
1.0629999637604	-0.50627316426264
1.0720000267029	-0.52704678942488
1.0809999704361	-0.54955871852116
1.0900000333786	-0.57383643147387
1.0989999771118	-0.59990769665607
1.1080000400543	-0.62780249012840
1.1169999837875	-0.65755006185560
1.1260000467300	-0.68918150210140
1.1349999904633	-0.72272363170282
1.1440000534058	-0.75821126109089
1.1529999971390	-0.79567570733549
1.1619999408722	-0.83514992160430
1.1710000038147	-0.87666541139014
1.1799999475479	-0.92025457316105
1.1890000104904	-0.96595516770818
1.1979999542236	-1.0138026432060
1.2070000171661	-1.0638300781934
1.2159999608994	-1.1160778981093
1.2250000238419	-1.1705785322786
1.2339999675751	-1.2273747769818
1.2430000305176	-1.2865025734857
1.2519999742508	-1.3480034836334
1.2610000371933	-1.4119184517951
1.2699999809265	-1.4782857609721
1.2790000438690	-1.5471506532363
1.2879999876022	-1.6185567893430
1.2970000505447	-1.6925451248199
1.3059999942780	-1.7691612213619
1.3150000572205	-1.8484518457961
1.3240000009537	-1.9304629149043
1.3329999446869	-2.0152408766540
1.3420000076294	-2.1028357941915
1.3509999513626	-2.1932945174110
1.3600000143051	-2.2866687389060
1.3689999580383	-2.3830098741396
1.3780000209808	-2.4823662486379
1.3869999647141	-2.5847943356232
1.3960000276566	-2.6903449588728
1.4049999713898	-2.7990762033302
1.4140000343323	-2.9110387983071
1.4229999780655	-3.0262930362169
1.4320000410080	-3.1448953899263
1.4409999847412	-3.2669011405119
1.4500000476837	-3.3923741417192
1.4589999914169	-3.5213709031815
1.4680000543594	-3.6539514386112
1.4769999980927	-3.7901808483747
1.4859999418259	-3.9301175650619
1.4950000047684	-4.0738273410816
1.5039999485016	-4.2213710079191
1.5130000114441	-4.3728163294742
1.5219999551773	-4.5282234692705
1.5310000181198	-4.6876606873555
1.5399999618530	-4.8511910279983
1.5490000247955	-5.0188796328259
1.5579999685287	-5.1907881135653
1.5670000314713	-5.3669832910978
1.5759999752045	-5.5475262578566
1.5850000381470	-5.7324757874305
1.5939999818802	-5.9218927780355
1.6030000448227	-6.1158321035133
1.6119999885559	-6.3143458476827
1.6210000514984	-6.5174816361382
1.6299999952316	-6.7252804351854
1.6390000581741	-6.9377785184659
1.6480000019073	-7.1550033619036
1.6569999456406	-7.3769697078574
1.6660000085831	-7.6036825821000
1.6749999523163	-7.8351311663941
1.6840000152588	-8.0712852328295
1.6929999589920	-8.3120968101198
1.7020000219345	-8.5574898317326
1.7109999656677	-8.8073596099356
1.7200000286102	-9.0615659248158
1.7289999723434	-9.3199264086666
1.7380000352859	-9.5822096959582
1.7469999790192	-9.8481318959191
1.7560000419617	-10.117338790236
1.7649999856949	-10.389403598357
1.7740000486374	-10.663811011189
1.7829999923706	-10.939950437193
1.7920000553131	-11.217095786878
1.8009999990463	-11.494403337413
1.8099999427795	-11.770889669946
1.8190000057220	-12.045425068997
1.8279999494553	-12.316727832981
1.8370000123978	-12.583349943960
1.8459999561310	-12.843690311553
1.8550000190735	-13.095990361021
1.8639999628067	-13.338358759262
1.8730000257492	-13.568799318598
1.8819999694824	-13.785246880990
1.8910000324249	-13.985630503590
1.8999999761581	-14.167930535690
1.9090000391006	-14.330262006928
1.9179999828339	-14.470952188104
1.9270000457764	-14.588621888287
1.9359999895096	-14.682256961745
1.9450000524521	-14.751261434595
1.9539999961853	-14.795495214098
1.9630000591278	-14.815280543766
1.9720000028610	-14.811379462575
1.9809999465942	-14.784955293658
1.9900000095367	-14.737501385006
1.9989999532700	-14.670772525660
2.0079998970032	-14.586695258792
2.0169999599457	-14.487298799445
2.0260000228882	-14.374630970194
2.0350000858307	-14.250708922058
2.0439999103546	-14.117458880310
2.0529999732971	-13.976688037220
2.0620000362396	-13.830062874541
2.0710000991821	-13.679090292088
2.0799999237061	-13.525115947904
2.0889999866486	-13.369327815523
2.0980000495911	-13.212762242571
2.1070001125336	-13.056312145763
2.1159999370575	-12.900740444865
2.1250000000000	-12.746694838400
2.1340000629425	-12.594714450970
2.1429998874664	-12.445246790121
2.1519999504089	-12.298658873912
2.1610000133514	-12.155243574279
2.1700000762939	-12.015237237673
2.1789999008179	-11.878818960443
2.1879999637604	-11.746124403599
2.1970000267029	-11.617249117331
2.2060000896454	-11.492257724196
2.2149999141693	-11.371183885191
2.2239999771118	-11.254041916070
2.2330000400543	-11.140822384229
2.2420001029968	-11.031503198787
2.2509999275208	-10.926042007042
2.2599999904633	-10.824391592722
2.2690000534058	-10.726491301467
2.2780001163483	-10.632273135817
2.2869999408722	-10.541660263298
2.2960000038147	-10.454576141818
2.3050000667572	-10.370934922530
2.3139998912811	-10.290648057870
2.3229999542236	-10.213626266076
2.3320000171661	-10.139776419301
2.3410000801086	-10.069002625381
2.3499999046326	-10.001209867717
2.3589999675751	-9.9362995092051
2.3680000305176	-9.8741770160627
2.3770000934601	-9.8147410091455
2.3859999179840	-9.7578943992929
2.3949999809265	-9.7035388791595
2.4040000438690	-9.6515762640407
2.4130001068115	-9.6019094111996
2.4219999313354	-9.5544397737506
2.4309999942780	-9.5090687338801
2.4400000572205	-9.4657031457676
2.4489998817444	-9.4242442641471
2.4579999446869	-9.3845987087277
2.4670000076294	-9.3466704576389
2.4760000705719	-9.3103673498771
2.4849998950958	-9.2755967707795
2.4939999580383	-9.2422675861686
2.5030000209808	-9.2102874248048
2.5120000839233	-9.1795690928337
2.5209999084473	-9.1500246411604
2.5299999713898	-9.1215679848955
2.5390000343323	-9.0941128751906
2.5480000972748	-9.0675752186788
2.5569999217987	-9.0418764311936
2.5659999847412	-9.0169327612964
2.5750000476837	-8.9926696823691
2.5840001106262	-8.9690101885510
2.5929999351501	-8.9458787519400
2.6019999980927	-8.9232047512713
2.6110000610352	-8.9009181937443
2.6199998855591	-8.8789551011950
2.6289999485016	-8.8572453082142
2.6380000114441	-8.8357312196925
2.6470000743866	-8.8143518984321
2.6559998989105	-8.7930512523296
2.6649999618530	-8.7717758297119
2.6740000247955	-8.7504736975716
2.6830000877380	-8.7291009519106
2.6919999122620	-8.7076089300957
2.7009999752045	-8.6859576305239
2.7100000381470	-8.6641077538345
2.7190001010895	-8.6420258962059
2.7279999256134	-8.6196796866648
2.7369999885559	-8.5970399779273
2.7460000514984	-8.5740810663269
2.7550001144409	-8.5507825992147
2.7639999389648	-8.5271241117427
2.7730000019073	-8.5030864390133
2.7820000648499	-8.4786619495398
2.7909998893738	-8.4538372645572
2.7999999523163	-8.4286057186230
2.8090000152588	-8.4029641393914
2.8180000782013	-8.3769108293000
2.8269999027252	-8.3504469464359
2.8359999656677	-8.3235744118987
2.8450000286102	-8.2963016271156
2.8540000915527	-8.2686364330497
2.8629999160767	-8.2405902960964
2.8719999790192	-8.2121732894205
2.8810000419617	-8.1834028002697
2.8900001049042	-8.1542920986273
2.8989999294281	-8.1248614628588
2.9079999923706	-8.0951298137955
2.9170000553131	-8.0651165912059
2.9260001182556	-8.0348447513671
2.9349999427795	-8.0043354277201
2.9440000057220	-7.9736156250232
2.9530000686646	-7.9427057944641
2.9619998931885	-7.9116334305700
2.9709999561310	-7.8804239532503
2.9800000190735	-7.8491014072734
2.9890000820160	-7.8176941925281
2.9979999065399	-7.7862268674794
3.0069999694824	-7.7547264117870
3.0160000324249	-7.7232179408129
3.0250000953674	-7.6917291533553
3.0339999198914	-7.6602825998192
3.0429999828339	-7.6289055357162
3.0520000457764	-7.5976222002148
3.0610001087189	-7.5664554312601
3.0699999332428	-7.5354305345991
3.0789999961853	-7.5045683896369
3.0880000591278	-7.4738914735491
3.0969998836517	-7.4434206020613
3.1059999465942	-7.4131770210223
3.1150000095367	-7.3831761912642
3.1240000724792	-7.3534415380666
3.1329998970032	-7.3239852127308
3.1419999599457	-7.2948267720352
3.1510000228882	-7.2659781669199
3.1600000858307	-7.2374562908316
3.1689999103546	-7.2092720525129
3.1779999732971	-7.1814379241701
3.1870000362396	-7.1539625281022
3.1960000991821	-7.1268563929020
3.2049999237061	-7.1001281717571
3.2139999866486	-7.0737833812533
3.2230000495911	-7.0478275465579
3.2320001125336	-7.0222651121571
3.2409999370575	-6.9971007223244
3.2500000000000	-6.9723353905350
3.2590000629425	-6.9479693807450
3.2679998874664	-6.9240035488624
3.2769999504089	-6.9004361057340
3.2860000133514	-6.8772650689410
3.2950000762939	-6.8544841238249
3.3039999008179	-6.8320905606449
3.3129999637604	-6.8100801697677
3.3220000267029	-6.7884410713429
3.3310000896454	-6.7671706909026
3.3399999141693	-6.7462567318328
3.3489999771118	-6.7256896908905
3.3580000400543	-6.7054582124608
3.3670001029968	-6.6855525777606
3.3759999275208	-6.6659580697381
3.3849999904633	-6.6466614948249
3.3940000534058	-6.6276497295024
3.4030001163483	-6.6089058760616
3.4119999408722	-6.5904151814019
3.4210000038147	-6.5721611778179
3.4300000667572	-6.5541253769940
3.4389998912811	-6.5362917662623
3.4479999542236	-6.5186408222157
3.4570000171661	-6.5011535739349
3.4660000801086	-6.4838132465350
3.4749999046326	-6.4665962477227
3.4839999675751	-6.4494859107497
3.4930000305176	-6.4324605584438
3.5020000934601	-6.4155009272305
3.5109999179840	-6.3985846112523
3.5199999809265	-6.3816930135517
3.5290000438690	-6.3648043678259
3.5380001068115	-6.3478991403195
3.5469999313354	-6.3309559784395
3.5559999942780	-6.3139547109969
3.5650000572205	-6.2968752885487
3.5739998817444	-6.2796988358632
3.5829999446869	-6.2624053336354
3.5920000076294	-6.2449752380411
3.6010000705719	-6.2273923000729
3.6099998950958	-6.2096374745030
3.6189999580383	-6.1916938663713
3.6280000209808	-6.1735459077274
3.6370000839233	-6.1551770178750
3.6459999084473	-6.1365732681428
3.6549999713898	-6.1177201871122
3.6640000343323	-6.0986067771426
3.6730000972748	-6.0792187527897
3.6819999217987	-6.0595472655607
3.6909999847412	-6.0395822610438
3.7000000476837	-6.0193141519880
3.7090001106262	-5.9987382171508
3.7179999351501	-5.9778456476044
3.7269999980927	-5.9566354238433
3.7360000610352	-5.9350995676215
3.7449998855591	-5.9132381425929
3.7539999485016	-5.8910516480831
3.7630000114441	-5.8685388044456
3.7720000743866	-5.8457020849932
3.7809998989105	-5.8225441602324
3.7899999618530	-5.7990700632357
3.7990000247955	-5.7752854472856
3.8080000877380	-5.7511962687509
3.8169999122620	-5.7268148480690
3.8259999752045	-5.7021476224102
3.8350000381470	-5.6772054534062
3.8440001010895	-5.6520003299419
3.8529999256134	-5.6265496221400
3.8619999885559	-5.6008630001090
3.8710000514984	-5.5749572821685
3.8800001144409	-5.5488499152103
3.8889999389648	-5.5225600505953
3.8980000019073	-5.4961012475019
3.9070000648499	-5.4694964695715
3.9159998893738	-5.4427668158775
3.9249999523163	-5.4159310900865
3.9340000152588	-5.3890107137265
3.9430000782013	-5.3620299043087
3.9519999027252	-5.3350088210740
3.9609999656677	-5.3079739392000
3.9700000286102	-5.2809464414234
3.9790000915527	-5.2539528581192
3.9879999160767	-5.2270162171670
3.9969999790192	-5.2001601944649
4.0060000419617	-5.1734117983913
4.0149998664856	-5.1467977830528
4.0240001678467	-5.1203397925968
4.0329999923706	-5.0940654188058
4.0419998168945	-5.0679987626524
4.0510001182556	-5.0421657790180
4.0599999427795	-5.0165925394675
4.0689997673035	-4.9913037714909
4.0780000686646	-4.9663225379892
4.0869998931885	-4.9416747818987
4.0960001945496	-4.9173845802504
4.1050000190735	-4.8934764800782
4.1139998435974	-4.8699741852450
4.1230001449585	-4.8469008052851
4.1319999694824	-4.8242794252805
4.1409997940063	-4.8021319913779
4.1500000953674	-4.7804808847169
4.1589999198914	-4.7593467629032
4.1680002212524	-4.7387527504632
4.1770000457764	-4.7187167926234
4.1859998703003	-4.6992622360324
4.1950001716614	-4.6804050955387
4.2039999961853	-4.6621669182397
4.2129998207092	-4.6445632709829
4.2220001220703	-4.6276135154490
4.2309999465942	-4.6113347456783
4.2399997711182	-4.5957433556445
4.2490000724792	-4.5808538105411
4.2579998970032	-4.5666828204765
4.2670001983643	-4.5532445022263
4.2760000228882	-4.5405514282644
4.2849998474121	-4.5286190253940
4.2940001487732	-4.5174584435301
4.3029999732971	-4.5070807838928
4.3119997978210	-4.4975003681888
4.3210000991821	-4.4887250181278
4.3299999237061	-4.4807640023883
4.3390002250671	-4.4736282644122
4.3480000495911	-4.4673268880699
4.3569998741150	-4.4618659666060
4.3660001754761	-4.4572524611085
4.3750000000000	-4.4534949451444
4.3839998245239	-4.4505962502810
4.3930001258850	-4.4485632384374
4.4019999504089	-4.4474011404609
4.4109997749329	-4.4471105280304
4.4200000762939	-4.4476977582348
4.4289999008179	-4.4491607723247
4.4380002021790	-4.4515055006373
4.4470000267029	-4.4547309501650
4.4559998512268	-4.4588357489273
4.4650001525879	-4.4638207980597
4.4739999771118	-4.4696857600517
4.4829998016357	-4.4764257614524
4.4920001029968	-4.4840395822080
4.5009999275208	-4.4925231879069
4.5100002288818	-4.5018727234277
4.5190000534058	-4.5120831072949
4.5279998779297	-4.5231473172696
4.5370001792908	-4.5350590351133
4.5460000038147	-4.5478125840494
4.5549998283386	-4.5613984062521
4.5640001296997	-4.5758083274474
4.5729999542236	-4.5910331174635
4.5819997787476	-4.6070625764442
4.5910000801086	-4.6238847399783
4.5999999046326	-4.6414878282223
4.6090002059937	-4.6598618712736
4.6180000305176	-4.6789890322368
4.6269998550415	-4.6988599168407
4.6360001564026	-4.7194565525920
4.6449999809265	-4.7407654967140
4.6539998054504	-4.7627697271709
4.6630001068115	-4.7854534592608
4.6719999313354	-4.8087990769552
4.6810002326965	-4.8327873061893
4.6900000572205	-4.8574013312614
4.6989998817444	-4.8826202206370
4.7080001831055	-4.9084245640708
4.7170000076294	-4.9347935978086
4.7259998321533	-4.9617064685429
4.7350001335144	-4.9891408531866
4.7439999580383	-5.0170737030687
4.7529997825623	-5.0454829082547
4.7620000839233	-5.0743464396665
4.7709999084473	-5.1036379193562
4.7800002098083	-5.1333358652887
4.7890000343323	-5.1634126815707
4.7979998588562	-5.1938438464788
4.8070001602173	-5.2246062365618
4.8159999847412	-5.2556715834636
4.8249998092651	-5.2870141015742
4.8340001106262	-5.3186065226536
4.8429999351501	-5.3504248289986
4.8520002365112	-5.3824412003000
4.8610000610352	-5.4146260737858
4.8699998855591	-5.4469561259365
4.8790001869202	-5.4794009985654
4.8880000114441	-5.5119340873808
4.8969998359680	-5.5445308240605
4.9060001373291	-5.5771581705127
4.9149999618530	-5.6097950054890
4.9239997863770	-5.6424101366363
4.9330000877380	-5.6749807354762
4.9419999122620	-5.7074754836601
4.9510002136230	-5.7398695793727
4.9600000381470	-5.7721373155558
4.9689998626709	-5.8042542488456
4.9780001640320	-5.8361924189016
4.9869999885559	-5.8679275761774
4.9959998130798	-5.8994359407603
5.0050001144409	-5.9306922628163
5.0139999389648	-5.9616746394512
5.0229997634888	-5.9923578560636
5.0320000648499	-6.0227224757596
5.0409998893738	-6.0527447465858
5.0500001907349	-6.0824037685774
5.0590000152588	-6.1116805487432
5.0679998397827	-6.1405540301886
5.0770001411438	-6.1690090172589
5.0859999656677	-6.1970255229378
5.0949997901917	-6.2245858675769
5.1040000915527	-6.2516769568170
5.1129999160767	-6.2782813724691
5.1220002174377	-6.3043864860601
5.1310000419617	-6.3299788168107
5.1399998664856	-6.3550487360143
5.1490001678467	-6.3795837750463
5.1579999923706	-6.4035750544990
5.1669998168945	-6.4270140074547
5.1760001182556	-6.4498919836962
5.1849999427795	-6.4722044433828
5.1939997673035	-6.4939465493241
5.2030000686646	-6.5151125155705
5.2119998931885	-6.5357030276915
5.2210001945496	-6.5557137279651
5.2300000190735	-6.5751449820556
5.2389998435974	-6.5939984657212
5.2480001449585	-6.6122763558754
5.2569999694824	-6.6299810919961
5.2659997940063	-6.6471179568444
5.2750000953674	-6.6636914634061
5.2839999198914	-6.6797107709147
5.2930002212524	-6.6951811604357
5.3020000457764	-6.7101133911485
5.3109998703003	-6.7245170981647
5.3200001716614	-6.7384020667897
5.3289999961853	-6.7517846907957
5.3379998207092	-6.7646727401555
5.3470001220703	-6.7770856175379
5.3559999465942	-6.7890359194742
5.3649997711182	-6.8005391367150
5.3740000724792	-6.8116144589034
5.3829998970032	-6.8222789411321
5.3920001983643	-6.8325514249163
5.4010000228882	-6.8424503662774
5.4099998474121	-6.8519983674124
5.4190001487732	-6.8612128323538
5.4279999732971	-6.8701184308317
5.4369997978210	-6.8787357082539
5.4460000991821	-6.8870879640809
5.4549999237061	-6.8951974139188
5.4640002250671	-6.9030892542295
5.4730000495911	-6.9107867195360
5.4819998741150	-6.9183140127752
5.4910001754761	-6.9256961155799
5.5000000000000	-6.9329581276870
5.5089998245239	-6.9401232747294
5.5180001258850	-6.9472184448718
5.5269999504089	-6.9542690130920
5.5359997749329	-6.9613016237249
5.5450000762939	-6.9683381407894
5.5539999008179	-6.9754063052855
5.5630002021790	-6.9825326730875
5.5720000267029	-6.9897385286008
5.5809998512268	-6.9970505821424
5.5900001525879	-7.0044942912614
5.5989999771118	-7.0120947783987
5.6079998016357	-7.0198726226522
5.6170001029968	-7.0278539471887
5.6259999275208	-7.0360624502937
5.6350002288818	-7.0445185790687
5.6440000534058	-7.0532458621423
5.6529998779297	-7.0622658938523
5.6620001792908	-7.0715994025281
5.6710000038147	-7.0812668038069
5.6799998283386	-7.0912889935807
5.6890001296997	-7.1016814925780
5.6979999542236	-7.1124659793996
5.7069997787476	-7.1236588097920
5.7160000801086	-7.1352763561281
5.7249999046326	-7.1473340250336
5.7340002059937	-7.1598453201017
5.7430000305176	-7.1728260873576
5.7519998550415	-7.1862899427178
5.7610001564026	-7.2002450719672
5.7699999809265	-7.2147035697498
5.7789998054504	-7.2296760266697
5.7880001068115	-7.2451695036829
5.7969999313354	-7.2611922435535
5.8060002326965	-7.2777478899552
5.8150000572205	-7.2948435016199
5.8239998817444	-7.3124813620875
5.8330001831055	-7.3306636681461
5.8420000076294	-7.3493901395372
5.8509998321533	-7.3686601597539
5.8600001335144	-7.3884736504862
5.8689999580383	-7.4088233526458
5.8779997825623	-7.4297047084920
5.8870000839233	-7.4511134103418
5.8959999084473	-7.4730391140993
5.9050002098083	-7.4954718720764
5.9140000343323	-7.5183989711557
5.9229998588562	-7.5418091165194
5.9320001602173	-7.5656856228604
5.9409999847412	-7.5900129864831
5.9499998092651	-7.6147716225506
5.9590001106262	-7.6399406530253
5.9679999351501	-7.6654996665590
5.9770002365112	-7.6914232096735
5.9860000610352	-7.7176864533255
5.9949998855591	-7.7442627530582
6.0040001869202	-7.7711209528701
6.0130000114441	-7.7982311801749
6.0219998359680	-7.8255599071694
6.0310001373291	-7.8530746667421
6.0399999618530	-7.8807363238771
6.0489997863770	-7.9085097174669
6.0580000877380	-7.9363540787320
6.0669999122620	-7.9642264927188
6.0760002136230	-7.9920879119257
6.0850000381470	-8.0198901156481
6.0939998626709	-8.0475911077359
6.1030001640320	-8.0751438046151
6.1119999885559	-8.1024971654152
6.1209998130798	-8.1296041622734
6.1300001144409	-8.1564147539513
6.1389999389648	-8.1828792184444
6.1479997634888	-8.2089437197637
6.1570000648499	-8.2345562501392
6.1659998893738	-8.2596661914129
6.1750001907349	-8.2842173762633
6.1840000152588	-8.3081617106621
6.1929998397827	-8.3314432532527
6.2020001411438	-8.3540107842653
6.2109999656677	-8.3758111713431
6.2199997901917	-8.3967962414116
6.2290000915527	-8.4169130687784
6.2379999160767	-8.4361122475195
6.2470002174377	-8.4543492187878
6.2560000419617	-8.4715760135776
6.2649998664856	-8.4877480921583
6.2740001678467	-8.5028255382852
6.2829999923706	-8.5167651974773
6.2919998168945	-8.5295318499139
6.3010001182556	-8.5410892168811
6.3099999427795	-8.5514069102570
6.3189997673035	-8.5604530891476
6.3280000686646	-8.5682017872968
6.3369998931885	-8.5746336074028
6.3460001945496	-8.5797247759772
6.3550000190735	-8.5834608031732
6.3639998435974	-8.5858303233117
6.3730001449585	-8.5868197203550
6.3819999694824	-8.5864292328571
6.3909997940063	-8.5846527801900
