#Parameters = {h=1.5; l=55; n=16.5; w=50; wp=3; x=13}
#"Frequency / GHz"	"S1,1 (28) [Magnitude / dB]"
#----------------------------------------------
1.0000000000000	-0.45127608282653
1.0089999437332	-0.45030806262133
1.0180000066757	-0.45126700140110
1.0269999504089	-0.45421480479492
1.0360000133514	-0.45921097957020
1.0449999570847	-0.46631084646823
1.0540000200272	-0.47557518454906
1.0629999637604	-0.48705872918280
1.0720000267029	-0.50081761810292
1.0809999704361	-0.51690720519160
1.0900000333786	-0.53538197446319
1.0989999771118	-0.55629970425014
1.1080000400543	-0.57971145418578
1.1169999837875	-0.60567525787942
1.1260000467300	-0.63424403034919
1.1349999904633	-0.66547280920064
1.1440000534058	-0.69941824704218
1.1529999971390	-0.73613665929817
1.1619999408722	-0.77568295242014
1.1710000038147	-0.81811422406836
1.1799999475479	-0.86348887814552
1.1890000104904	-0.91186799871742
1.1979999542236	-0.96330610563326
1.2070000171661	-1.0178696180839
1.2159999608994	-1.0756150905986
1.2250000238419	-1.1366090185625
1.2339999675751	-1.2009161825641
1.2430000305176	-1.2685990163569
1.2519999742508	-1.3397276513449
1.2610000371933	-1.4143719909500
1.2699999809265	-1.4925996051647
1.2790000438690	-1.5744850512694
1.2879999876022	-1.6601015780277
1.2970000505447	-1.7495256313108
1.3059999942780	-1.8428377632857
1.3150000572205	-1.9401158056719
1.3240000009537	-2.0414449122275
1.3329999446869	-2.1469091487814
1.3420000076294	-2.2565993582750
1.3509999513626	-2.3706022964128
1.3600000143051	-2.4890135453065
1.3689999580383	-2.6119302526415
1.3780000209808	-2.7394516995797
1.3869999647141	-2.8716801857754
1.3960000276566	-3.0087240394482
1.4049999713898	-3.1506906583081
1.4140000343323	-3.2976938083254
1.4229999780655	-3.4498521650820
1.4320000410080	-3.6072881421248
1.4409999847412	-3.7701270988490
1.4500000476837	-3.9384988830566
1.4589999914169	-4.1125374578700
1.4680000543594	-4.2923844031727
1.4769999980927	-4.4781832213776
1.4859999418259	-4.6700835849267
1.4950000047684	-4.8682393117742
1.5039999485016	-5.0728095659426
1.5130000114441	-5.2839591214973
1.5219999551773	-5.5018571656590
1.5310000181198	-5.7266739876286
1.5399999618530	-5.9585884019496
1.5490000247955	-6.1977794100277
1.5579999685287	-6.4444267016990
1.5670000314713	-6.6987135003204
1.5759999752045	-6.9608216683689
1.5850000381470	-7.2309229232138
1.5939999818802	-7.5091899400894
1.6030000448227	-7.7957748574316
1.6119999885559	-8.0908184815278
1.6210000514984	-8.3944330055171
1.6299999952316	-8.7066977959403
1.6390000581741	-9.0276475977032
1.6480000019073	-9.3572493773905
1.6569999456406	-9.6953976172362
1.6660000085831	-10.041877286504
1.6749999523163	-10.396341517978
1.6840000152588	-10.758272516329
1.6929999589920	-11.126939758573
1.7020000219345	-11.501340191872
1.7109999656677	-11.880144828834
1.7200000286102	-12.261619109493
1.7289999723434	-12.643543860164
1.7380000352859	-13.023142002133
1.7469999790192	-13.396990877994
1.7560000419617	-13.760974829515
1.7649999856949	-14.110262549829
1.7740000486374	-14.439350369440
1.7829999923706	-14.742197801651
1.7920000553131	-15.012468114189
1.8009999990463	-15.243906549987
1.8099999427795	-15.430796254774
1.8190000057220	-15.568491494243
1.8279999494553	-15.653896842787
1.8370000123978	-15.685825095447
1.8459999561310	-15.665140759145
1.8550000190735	-15.594645058143
1.8639999628067	-15.478758280972
1.8730000257492	-15.323032307887
1.8819999694824	-15.133635918546
1.8910000324249	-14.916877144011
1.8999999761581	-14.678807278137
1.9090000391006	-14.424971196443
1.9179999828339	-14.160256293679
1.9270000457764	-13.888832888715
1.9359999895096	-13.614173427974
1.9450000524521	-13.339099606096
1.9539999961853	-13.065856756140
1.9630000591278	-12.796202509937
1.9720000028610	-12.531474259691
1.9809999465942	-12.272676079996
1.9900000095367	-12.020530965309
1.9989999532700	-11.775542732755
2.0079998970032	-11.538041953786
2.0169999599457	-11.308216036375
2.0260000228882	-11.086148462891
2.0350000858307	-10.871839819490
2.0439999103546	-10.665228286701
2.0529999732971	-10.466199548895
2.0620000362396	-10.274607768985
2.0710000991821	-10.090282183905
2.0799999237061	-9.9130290708757
2.0889999866486	-9.7426492613762
2.0980000495911	-9.5789296259052
2.1070001125336	-9.4216553697845
2.1159999370575	-9.2706077476124
2.1250000000000	-9.1255751095322
2.1340000629425	-8.9863417879508
2.1429998874664	-8.8526946754003
2.1519999504089	-8.7244290436055
2.1610000133514	-8.6013407345515
2.1700000762939	-8.4832354730130
2.1789999008179	-8.3699171454689
2.1879999637604	-8.2611991231042
2.1970000267029	-8.1569009348210
2.2060000896454	-8.0568452894783
2.2149999141693	-7.9608602842311
2.2239999771118	-7.8687782681521
2.2330000400543	-7.7804388194761
2.2420001029968	-7.6956828860680
2.2509999275208	-7.6143583646663
2.2599999904633	-7.5363181058659
2.2690000534058	-7.4614148029199
2.2780001163483	-7.3895116287119
2.2869999408722	-7.3204698290013
2.2960000038147	-7.2541571946197
2.3050000667572	-7.1904468044232
2.3139998912811	-7.1292102792377
2.3229999542236	-7.0703268853926
2.3320000171661	-7.0136765885942
2.3410000801086	-6.9591452766655
2.3499999046326	-6.9066202902710
2.3589999675751	-6.8559915342642
2.3680000305176	-6.8071521207646
2.3770000934601	-6.7599994802838
2.3859999179840	-6.7144344530841
2.3949999809265	-6.6703572674098
2.4040000438690	-6.6276733646405
2.4130001068115	-6.5862918669558
2.4219999313354	-6.5461247164177
2.4309999942780	-6.5070856565058
2.4400000572205	-6.4690916070597
2.4489998817444	-6.4320631853326
2.4579999446869	-6.3959228511137
2.4670000076294	-6.3605957116783
2.4760000705719	-6.3260151413197
2.4849998950958	-6.2921077916642
2.4939999580383	-6.2588131131465
2.5030000209808	-6.2260670565157
2.5120000839233	-6.1938121723650
2.5209999084473	-6.1619927686828
2.5299999713898	-6.1305556539352
2.5390000343323	-6.0994525826625
2.5480000972748	-6.0686374219012
2.5569999217987	-6.0380665225283
2.5659999847412	-6.0076994162009
2.5750000476837	-5.9775014364147
2.5840001106262	-5.9474352366191
2.5929999351501	-5.9174711029795
2.6019999980927	-5.8875824453377
2.6110000610352	-5.8577433916054
2.6199998855591	-5.8279312389928
2.6289999485016	-5.7981252769293
2.6380000114441	-5.7683096675754
2.6470000743866	-5.7384704405104
2.6559998989105	-5.7085937252218
2.6649999618530	-5.6786717691324
2.6740000247955	-5.6486957587736
2.6830000877380	-5.6186638182748
2.6919999122620	-5.5885684589727
2.7009999752045	-5.5584119127030
2.7100000381470	-5.5281933871020
2.7190001010895	-5.4979147960267
2.7279999256134	-5.4675814810599
2.7369999885559	-5.4371997679058
2.7460000514984	-5.4067746962682
2.7550001144409	-5.3763139524314
2.7639999389648	-5.3458285269602
2.7730000019073	-5.3153275772492
2.7820000648499	-5.2848227721511
2.7909998893738	-5.2543237679208
2.7999999523163	-5.2238455304205
2.8090000152588	-5.1934011585275
2.8180000782013	-5.1630024706084
2.8269999027252	-5.1326624418117
2.8359999656677	-5.1023957426315
2.8450000286102	-5.0722183503721
2.8540000915527	-5.0421397382413
2.8629999160767	-5.0121783439398
2.8719999790192	-4.9823453131832
2.8810000419617	-4.9526545208640
2.8900001049042	-4.9231182395057
2.8989999294281	-4.8937521923307
2.9079999923706	-4.8645662203681
2.9170000553131	-4.8355721683104
2.9260001182556	-4.8067832361217
2.9349999427795	-4.7782085824725
2.9440000057220	-4.7498584288014
2.9530000686646	-4.7217425422612
2.9619998931885	-4.6938706728283
2.9709999561310	-4.6662499296599
2.9800000190735	-4.6388866848106
2.9890000820160	-4.6117897498141
2.9979999065399	-4.5849637988256
3.0069999694824	-4.5584112463884
3.0160000324249	-4.5321400272695
3.0250000953674	-4.5061522892060
3.0339999198914	-4.4804491482357
3.0429999828339	-4.4550352057273
3.0520000457764	-4.4299072990706
3.0610001087189	-4.4050683822881
3.0699999332428	-4.3805175617149
3.0789999961853	-4.3562546352768
3.0880000591278	-4.3322746981567
3.0969998836517	-4.3085754512454
3.1059999465942	-4.2851543278317
3.1150000095367	-4.2620073225486
3.1240000724792	-4.2391298179733
3.1329998970032	-4.2165134619975
3.1419999599457	-4.1941567503240
3.1510000228882	-4.1720486156722
3.1600000858307	-4.1501858160331
3.1689999103546	-4.1285562830914
3.1779999732971	-4.1071542702969
3.1870000362396	-4.0859739650587
3.1960000991821	-4.0650022503813
3.2049999237061	-4.0442313417380
3.2139999866486	-4.0236502815686
3.2230000495911	-4.0032543362928
3.2320001125336	-3.9830291134377
3.2409999370575	-3.9629640999105
3.2500000000000	-3.9430517428482
3.2590000629425	-3.9232799636389
3.2679998874664	-3.9036383613841
3.2769999504089	-3.8841175730576
3.2860000133514	-3.8647071425830
3.2950000762939	-3.8453966889034
3.3039999008179	-3.8261747719615
3.3129999637604	-3.8070344504570
3.3220000267029	-3.7879619381263
3.3310000896454	-3.7689533518921
3.3399999141693	-3.7499943065901
3.3489999771118	-3.7310793886618
3.3580000400543	-3.7121983737086
3.3670001029968	-3.6933451903081
3.3759999275208	-3.6745107132449
3.3849999904633	-3.6556889280489
3.3940000534058	-3.6368716088143
3.4030001163483	-3.6180555165555
3.4119999408722	-3.5992330168402
3.4210000038147	-3.5804015348836
3.4300000667572	-3.5615535109942
3.4389998912811	-3.5426893422446
3.4479999542236	-3.5238026599019
3.4570000171661	-3.5048933173957
3.4660000801086	-3.4859610178564
3.4749999046326	-3.4670017096369
3.4839999675751	-3.4480175052090
3.4930000305176	-3.4290093711704
3.5020000934601	-3.4099780346520
3.5109999179840	-3.3909246853506
3.5199999809265	-3.3718542510156
3.5290000438690	-3.3527678979084
3.5380001068115	-3.3336732902141
3.5469999313354	-3.3145723398249
3.5559999942780	-3.2954718840101
3.5650000572205	-3.2763796911182
3.5739998817444	-3.2573016297157
3.5829999446869	-3.2382457116912
3.5920000076294	-3.2192203389483
3.6010000705719	-3.2002357773515
3.6099998950958	-3.1813004113707
3.6189999580383	-3.1624247679334
3.6280000209808	-3.1436208180693
3.6370000839233	-3.1249004158810
3.6459999084473	-3.1062736267413
3.6549999713898	-3.0877560272929
3.6640000343323	-3.0693562649921
3.6730000972748	-3.0510918284228
3.6819999217987	-3.0329754715064
3.6909999847412	-3.0150208334348
3.7000000476837	-2.9972431962106
3.7090001106262	-2.9796585533905
3.7179999351501	-2.9622804599646
3.7269999980927	-2.9451230330781
3.7360000610352	-2.9282064540278
3.7449998855591	-2.9115449686394
3.7539999485016	-2.8951526762750
3.7630000114441	-2.8790485382480
3.7720000743866	-2.8632486073446
3.7809998989105	-2.8477694193201
3.7899999618530	-2.8326263558316
3.7990000247955	-2.8178378129452
3.8080000877380	-2.8034208180014
3.8169999122620	-2.7893909280314
3.8259999752045	-2.7757656522080
3.8350000381470	-2.7625618721332
3.8440001010895	-2.7497965920153
3.8529999256134	-2.7374855716755
3.8619999885559	-2.7256461476466
3.8710000514984	-2.7142931639199
3.8800001144409	-2.7034434856237
3.8889999389648	-2.6931159636461
3.8980000019073	-2.6833223920097
3.9070000648499	-2.6740820301739
3.9159998893738	-2.6654069941898
3.9249999523163	-2.6573157299965
3.9340000152588	-2.6498190545017
3.9430000782013	-2.6429367522836
3.9519999027252	-2.6366804675890
3.9609999656677	-2.6310646306265
3.9700000286102	-2.6261036368802
3.9790000915527	-2.6218088255310
3.9879999160767	-2.6181979700845
3.9969999790192	-2.6152800272734
4.0060000419617	-2.6130688094476
4.0149998664856	-2.6115759864083
4.0240001678467	-2.6108147819961
4.0329999923706	-2.6107960273107
4.0419998168945	-2.6115289080302
4.0510001182556	-2.6130262717392
4.0599999427795	-2.6152984655044
4.0689997673035	-2.6183535551482
4.0780000686646	-2.6222024189651
4.0869998931885	-2.6268505598682
4.0960001945496	-2.6323103239697
4.1050000190735	-2.6385880951672
4.1139998435974	-2.6456911298539
4.1230001449585	-2.6536257651132
4.1319999694824	-2.6623992041023
4.1409997940063	-2.6720153047487
4.1500000953674	-2.6824818643519
4.1589999198914	-2.6938015024840
4.1680002212524	-2.7059800874631
4.1770000457764	-2.7190197887072
4.1859998703003	-2.7329242942310
4.1950001716614	-2.7476941289888
4.2039999961853	-2.7633321517947
4.2129998207092	-2.7798405343797
4.2220001220703	-2.7972173727049
4.2309999465942	-2.8154624798018
4.2399997711182	-2.8345765212615
4.2490000724792	-2.8545561687855
4.2579998970032	-2.8753998769041
4.2670001983643	-2.8971032912750
4.2760000228882	-2.9196639791454
4.2849998474121	-2.9430751317571
4.2940001487732	-2.9673344413874
4.3029999732971	-2.9924313974281
4.3119997978210	-3.0183624352493
4.3210000991821	-3.0451191634278
4.3299999237061	-3.0726916995922
4.3390002250671	-3.1010718995723
4.3480000495911	-3.1302486722969
4.3569998741150	-3.1602112459446
4.3660001754761	-3.1909489098233
4.3750000000000	-3.2224466630560
4.3839998245239	-3.2546924140315
4.3930001258850	-3.2876726495565
4.4019999504089	-3.3213701237238
4.4109997749329	-3.3557702823814
4.4200000762939	-3.3908558331040
4.4289999008179	-3.4266091245856
4.4380002021790	-3.4630124655686
4.4470000267029	-3.5000470955321
4.4559998512268	-3.5376895810459
4.4650001525879	-3.5759244089512
4.4739999771118	-3.6147242193575
4.4829998016357	-3.6540706762134
4.4920001029968	-3.6939391945078
4.5009999275208	-3.7343056821763
4.5100002288818	-3.7751458263751
4.5190000534058	-3.8164356696862
4.5279998779297	-3.8581471411524
4.5370001792908	-3.9002559505140
4.5460000038147	-3.9427328512145
4.5549998283386	-3.9855504499352
4.5640001296997	-4.0286833004892
4.5729999542236	-4.0720970606679
4.5819997787476	-4.1157676989462
4.5910000801086	-4.1596623795723
4.5999999046326	-4.2037509762020
4.6090002059937	-4.2480042995877
4.6180000305176	-4.2923880990764
4.6269998550415	-4.3368738261710
4.6360001564026	-4.3814300398705
4.6449999809265	-4.4260238322448
4.6539998054504	-4.4706206096306
4.6630001068115	-4.5151917120336
4.6719999313354	-4.5597027704213
4.6810002326965	-4.6041215981637
4.6900000572205	-4.6484167890144
4.6989998817444	-4.6925535425815
4.7080001831055	-4.7365011290149
4.7170000076294	-4.7802264406439
4.7259998321533	-4.8236982209015
4.7350001335144	-4.8668822726569
4.7439999580383	-4.9097494175846
4.7529997825623	-4.9522674784000
4.7620000839233	-4.9944065700298
4.7709999084473	-5.0361338651638
4.7800002098083	-5.0774208452493
4.7890000343323	-5.1182371348411
4.7979998588562	-5.1585568758200
4.8070001602173	-5.1983474013683
4.8159999847412	-5.2375853626844
4.8249998092651	-5.2762407187336
4.8340001106262	-5.3142894742501
4.8429999351501	-5.3517069454047
4.8520002365112	-5.3884689107248
4.8610000610352	-5.4245497006915
4.8699998855591	-5.4599320346519
4.8790001869202	-5.4945915090895
4.8880000114441	-5.5285102319048
4.8969998359680	-5.5616691744089
4.9060001373291	-5.5940501303747
4.9149999618530	-5.6256367740621
4.9239997863770	-5.6564159004138
4.9330000877380	-5.6863720347647
4.9419999122620	-5.7154952346611
4.9510002136230	-5.7437747509310
4.9600000381470	-5.7711992453666
4.9689998626709	-5.7977641226308
4.9780001640320	-5.8234591125430
4.9869999885559	-5.8482828373396
4.9959998130798	-5.8722297639412
5.0050001144409	-5.8953009082277
5.0139999389648	-5.9174918885821
5.0229997634888	-5.9388086501367
5.0320000648499	-5.9592519566009
5.0409998893738	-5.9788242556049
5.0500001907349	-5.9975351314457
5.0590000152588	-6.0153903477070
5.0679998397827	-6.0323980905201
5.0770001411438	-6.0485692176300
5.0859999656677	-6.0639170393083
5.0949997901917	-6.0784520630944
5.1040000915527	-6.0921911105393
5.1129999160767	-6.1051495923815
5.1220002174377	-6.1173442799067
5.1310000419617	-6.1287945640458
5.1399998664856	-6.1395196598135
5.1490001678467	-6.1495412384353
5.1579999923706	-6.1588785092287
5.1669998168945	-6.1675582891027
5.1760001182556	-6.1756028573872
5.1849999427795	-6.1830372371024
5.1939997673035	-6.1898877715984
5.2030000686646	-6.1961797819195
5.2119998931885	-6.2019437609904
5.2210001945496	-6.2072063144555
5.2300000190735	-6.2119959012216
5.2389998435974	-6.2163435891888
5.2480001449585	-6.2202787257482
5.2569999694824	-6.2238292397362
5.2659997940063	-6.2270313347115
5.2750000953674	-6.2299118599534
5.2839999198914	-6.2325029594232
5.2930002212524	-6.2348401794839
5.3020000457764	-6.2369509467987
5.3109998703003	-6.2388701199740
5.3200001716614	-6.2406280136439
5.3289999961853	-6.2422601864275
5.3379998207092	-6.2437949472722
5.3470001220703	-6.2452669572341
5.3559999465942	-6.2467078595227
5.3649997711182	-6.2481487267728
5.3740000724792	-6.2496215192614
5.3829998970032	-6.2511585249215
5.3920001983643	-6.2527900077610
5.4010000228882	-6.2545482741991
5.4099998474121	-6.2564631113276
5.4190001487732	-6.2585631485900
5.4279999732971	-6.2608811272086
5.4369997978210	-6.2634446622520
5.4460000991821	-6.2662831785428
5.4549999237061	-6.2694247526755
5.4640002250671	-6.2728988629023
5.4730000495911	-6.2767325544907
5.4819998741150	-6.2809525111059
5.4910001754761	-6.2855857421930
5.5000000000000	-6.2906590662181
5.5089998245239	-6.2961958238660
5.5180001258850	-6.3022243539904
5.5269999504089	-6.3087661357486
5.5359997749329	-6.3158476822286
5.5450000762939	-6.3234917798341
5.5539999008179	-6.3317207978024
5.5630002021790	-6.3405572535487
5.5720000267029	-6.3500245483410
5.5809998512268	-6.3601428797380
5.5900001525879	-6.3709337671033
5.5989999771118	-6.3824169810902
5.6079998016357	-6.3946128062544
5.6170001029968	-6.4075418041084
5.6259999275208	-6.4212214489171
5.6350002288818	-6.4356711256905
5.6440000534058	-6.4509089995475
5.6529998779297	-6.4669509375369
5.6620001792908	-6.4838176981265
5.6710000038147	-6.5015242688648
5.6799998283386	-6.5200860845686
5.6890001296997	-6.5395210851566
5.6979999542236	-6.5598421992250
5.7069997787476	-6.5810695744464
5.7160000801086	-6.6032131269368
5.7249999046326	-6.6262916225665
5.7340002059937	-6.6503167590904
5.7430000305176	-6.6753024123252
5.7519998550415	-6.7012670692116
5.7610001564026	-6.7282193873174
5.7699999809265	-6.7561739783352
5.7789998054504	-6.7851448825993
5.7880001068115	-6.8151458526776
5.7969999313354	-6.8461903605704
5.8060002326965	-6.8782901605103
5.8150000572205	-6.9114580278229
5.8239998817444	-6.9457056844479
5.8330001831055	-6.9810486168589
5.8420000076294	-7.0174971110128
5.8509998321533	-7.0550660077416
5.8600001335144	-7.0937646785286
5.8689999580383	-7.1336100007778
5.8779997825623	-7.1746122667393
5.8870000839233	-7.2167856018706
5.8959999084473	-7.2601419520341
5.9050002098083	-7.3046960504380
5.9140000343323	-7.3504602937368
5.9229998588562	-7.3974516801568
5.9320001602173	-7.4456801246375
5.9409999847412	-7.4951623999727
5.9499998092651	-7.5459119392971
5.9590001106262	-7.5979452156408
5.9679999351501	-7.6512784748196
5.9770002365112	-7.7059256609975
5.9860000610352	-7.7619044855318
5.9949998855591	-7.8192325208227
6.0040001869202	-7.8779260198525
6.0130000114441	-7.9380057507349
6.0219998359680	-7.9994877645183
6.0310001373291	-8.0623929292648
6.0399999618530	-8.1267431282817
6.0489997863770	-8.1925570314242
6.0580000877380	-8.2598584082426
6.0669999122620	-8.3286709945310
6.0760002136230	-8.3990158327717
6.0850000381470	-8.4709211056876
6.0939998626709	-8.5444097342297
6.1030001640320	-8.6195117558462
6.1119999885559	-8.6962527422434
6.1209998130798	-8.7746638515183
6.1300001144409	-8.8547748575021
6.1389999389648	-8.9366188282871
6.1479997634888	-9.0202288801879
6.1570000648499	-9.1056390900012
6.1659998893738	-9.1928870830548
6.1750001907349	-9.2820113190756
6.1840000152588	-9.3730491214845
6.1929998397827	-9.4660467704412
6.2020001411438	-9.5610441928149
6.2109999656677	-9.6580893306314
6.2199997901917	-9.7572289494978
6.2290000915527	-9.8585121351728
6.2379999160767	-9.9619928268217
6.2470002174377	-10.067724685375
6.2560000419617	-10.175765428871
6.2649998664856	-10.286174072425
6.2740001678467	-10.399013978146
6.2829999923706	-10.514351354419
6.2919998168945	-10.632254185005
6.3010001182556	-10.752794844335
6.3099999427795	-10.876049977079
6.3189997673035	-11.002098534103
6.3280000686646	-11.131022620558
6.3369998931885	-11.262910875541
6.3460001945496	-11.397853831072
6.3550000190735	-11.535948909826
6.3639998435974	-11.677299182850
6.3730001449585	-11.822008694806
6.3819999694824	-11.970190251039
6.3909997940063	-12.121962139857
