#Parameters = {h=1.5; l=55; n=18; w=50; wp=3; x=13}
#"Frequency / GHz"	"S1,1 (31) [Magnitude / dB]"
#----------------------------------------------
1.0000000000000	-0.47170902624288
1.0089999437332	-0.46409181756282
1.0180000066757	-0.45853537308217
1.0269999504089	-0.45511604612631
1.0360000133514	-0.45389942780796
1.0449999570847	-0.45496030190129
1.0540000200272	-0.45836270305319
1.0629999637604	-0.46417323515934
1.0720000267029	-0.47245452976874
1.0809999704361	-0.48327160226553
1.0900000333786	-0.49668574740625
1.0989999771118	-0.51275925246718
1.1080000400543	-0.53155010922784
1.1169999837875	-0.55312041107509
1.1260000467300	-0.57753043848320
1.1349999904633	-0.60483810438763
1.1440000534058	-0.63510415323488
1.1529999971390	-0.66838768788442
1.1619999408722	-0.70475186803768
1.1710000038147	-0.74425251853566
1.1799999475479	-0.78695389701610
1.1890000104904	-0.83291908782339
1.1979999542236	-0.88220746461850
1.2070000171661	-0.93488834628989
1.2159999608994	-0.99102284388247
1.2250000238419	-1.0506791262894
1.2339999675751	-1.1139267580487
1.2430000305176	-1.1808307786993
1.2519999742508	-1.2514683618925
1.2610000371933	-1.3259073959657
1.2699999809265	-1.4042249381966
1.2790000438690	-1.4864996919412
1.2879999876022	-1.5728082595894
1.2970000505447	-1.6632339391435
1.3059999942780	-1.7578598731933
1.3150000572205	-1.8567737241532
1.3240000009537	-1.9600630877619
1.3329999446869	-2.0678221104626
1.3420000076294	-2.1801447983015
1.3509999513626	-2.2971302621947
1.3600000143051	-2.4188801392678
1.3689999580383	-2.5455012548227
1.3780000209808	-2.6771015019390
1.3869999647141	-2.8137917867060
1.3960000276566	-2.9556953369255
1.4049999713898	-3.1029290445922
1.4140000343323	-3.2556212732404
1.4229999780655	-3.4139038386092
1.4320000410080	-3.5779136980370
1.4409999847412	-3.7477899344171
1.4500000476837	-3.9236829170434
1.4589999914169	-4.1057451187475
1.4680000543594	-4.2941374765677
1.4769999980927	-4.4890265024098
1.4859999418259	-4.6905835478253
1.4950000047684	-4.8989877173556
1.5039999485016	-5.1144286305894
1.5130000114441	-5.3370969805634
1.5219999551773	-5.5671945140771
1.5310000181198	-5.8049284429182
1.5399999618530	-6.0505110542594
1.5490000247955	-6.3041608013663
1.5579999685287	-6.5661013596607
1.5670000314713	-6.8365586537386
1.5759999752045	-7.1157561278532
1.5850000381470	-7.4039210567262
1.5939999818802	-7.7012691799021
1.6030000448227	-8.0080035115180
1.6119999885559	-8.3243114385895
1.6210000514984	-8.6503506227883
1.6299999952316	-8.9862375329544
1.6390000581741	-9.3320299292446
1.6480000019073	-9.6877120017159
1.6569999456406	-10.053161520062
1.6660000085831	-10.428116734217
1.6749999523163	-10.812140632835
1.6840000152588	-11.204556755095
1.6929999589920	-11.604388723400
1.7020000219345	-12.010280055003
1.7109999656677	-12.420395135003
1.7200000286102	-12.832311214532
1.7289999723434	-13.242902208812
1.7380000352859	-13.648219550075
1.7469999790192	-14.043391365946
1.7560000419617	-14.422583300484
1.7649999856949	-14.779024401971
1.7740000486374	-15.105185421736
1.7829999923706	-15.393113152994
1.7920000553131	-15.634966996292
1.8009999990463	-15.823714885057
1.8099999427795	-15.953884734460
1.8190000057220	-16.022256286409
1.8279999494553	-16.028285714436
1.8370000123978	-15.974188502190
1.8459999561310	-15.864620730222
1.8550000190735	-15.706076361771
1.8639999628067	-15.506129653640
1.8730000257492	-15.272715333125
1.8819999694824	-15.013518097399
1.8910000324249	-14.735568562401
1.8999999761581	-14.445008208870
1.9090000391006	-14.147011812352
1.9179999828339	-13.845811009225
1.9270000457764	-13.544774213984
1.9359999895096	-13.246520267736
1.9450000524521	-12.953039963167
1.9539999961853	-12.665806902598
1.9630000591278	-12.385881732014
1.9720000028610	-12.113989968301
1.9809999465942	-11.850608945724
1.9900000095367	-11.596011990146
1.9989999532700	-11.350318750412
2.0079998970032	-11.113537656423
2.0169999599457	-10.885589012192
2.0260000228882	-10.666330221205
2.0350000858307	-10.455573484165
2.0439999103546	-10.253095898672
2.0529999732971	-10.058656779274
2.0620000362396	-9.8720005697528
2.0710000991821	-9.6928612709306
2.0799999237061	-9.5209699267634
2.0889999866486	-9.3560580660832
2.0980000495911	-9.1978638267255
2.1070001125336	-9.0461239521804
2.1159999370575	-8.9005801678857
2.1250000000000	-8.7609868079171
2.1340000629425	-8.6271007431081
2.1429998874664	-8.4986865814054
2.1519999504089	-8.3755141433362
2.1610000133514	-8.2573658650549
2.1700000762939	-8.1440257698178
2.1789999008179	-8.0352898424268
2.1879999637604	-7.9309583899112
2.1970000267029	-7.8308395529478
2.2060000896454	-7.7347462059004
2.2149999141693	-7.6425001198829
2.2239999771118	-7.5539262341682
2.2330000400543	-7.4688588144237
2.2420001029968	-7.3871335034480
2.2509999275208	-7.3085933218541
2.2599999904633	-7.2330866927153
2.2690000534058	-7.1604653412149
2.2780001163483	-7.0905880033079
2.2869999408722	-7.0233171199615
2.2960000038147	-6.9585173273923
2.3050000667572	-6.8960605325549
2.3139998912811	-6.8358218784610
2.3229999542236	-6.7776784516726
2.3320000171661	-6.7215141107789
2.3410000801086	-6.6672156565140
2.3499999046326	-6.6146735744308
2.3589999675751	-6.5637805126967
2.3680000305176	-6.5144357311838
2.3770000934601	-6.4665404955052
2.3859999179840	-6.4199982276672
2.3949999809265	-6.3747196966256
2.4040000438690	-6.3306171004335
2.4130001068115	-6.2876048142800
2.4219999313354	-6.2456033880952
2.4309999942780	-6.2045357549160
2.4400000572205	-6.1643270867803
2.4489998817444	-6.1249097756280
2.4579999446869	-6.0862173246585
2.4670000076294	-6.0481835055570
2.4760000705719	-6.0107535724088
2.4849998950958	-5.9738686163617
2.4939999580383	-5.9374766397724
2.5030000209808	-5.9015306944165
2.5120000839233	-5.8659827885041
2.5209999084473	-5.8307919578072
2.5299999713898	-5.7959199048176
2.5390000343323	-5.7613275598853
2.5480000972748	-5.7269874431162
2.5569999217987	-5.6928654710368
2.5659999847412	-5.6589390670197
2.5750000476837	-5.6251826394830
2.5840001106262	-5.5915761110627
2.5929999351501	-5.5581010575290
2.6019999980927	-5.5247437476500
2.6110000610352	-5.4914909823733
2.6199998855591	-5.4583319027775
2.6289999485016	-5.4252577308660
2.6380000114441	-5.3922646469328
2.6470000743866	-5.3593462254172
2.6559998989105	-5.3265049948108
2.6649999618530	-5.2937365951544
2.6740000247955	-5.2610440847884
2.6830000877380	-5.2284306266104
2.6919999122620	-5.1959028213797
2.7009999752045	-5.1634626415780
2.7100000381470	-5.1311190896094
2.7190001010895	-5.0988815755664
2.7279999256134	-5.0667540647685
2.7369999885559	-5.0347507627776
2.7460000514984	-5.0028796115564
2.7550001144409	-4.9711521712493
2.7639999389648	-4.9395779138092
2.7730000019073	-4.9081691901978
2.7820000648499	-4.8769381323314
2.7909998893738	-4.8458937199039
2.7999999523163	-4.8150486956168
2.8090000152588	-4.7844173837724
2.8180000782013	-4.7540073115033
2.8269999027252	-4.7238288177530
2.8359999656677	-4.6938937396329
2.8450000286102	-4.6642133367237
2.8540000915527	-4.6347969704259
2.8629999160767	-4.6056525782596
2.8719999790192	-4.5767882529429
2.8810000419617	-4.5482129951371
2.8900001049042	-4.5199343049500
2.8989999294281	-4.4919561897092
2.9079999923706	-4.4642880855588
2.9170000553131	-4.4369335011075
2.9260001182556	-4.4098955909833
2.9349999427795	-4.3831784696114
2.9440000057220	-4.3567845173231
2.9530000686646	-4.3307164482790
2.9619998931885	-4.3049740996001
2.9709999561310	-4.2795573315179
2.9800000190735	-4.2544664250245
2.9890000820160	-4.2296983975536
2.9979999065399	-4.2052538145070
3.0069999694824	-4.1811271256145
3.0160000324249	-4.1573131734315
3.0250000953674	-4.1338099090558
3.0339999198914	-4.1106115483687
3.0429999828339	-4.0877124039137
3.0520000457764	-4.0651041826309
3.0610001087189	-4.0427785241089
3.0699999332428	-4.0207305984521
3.0789999961853	-3.9989515734504
3.0880000591278	-3.9774289170844
3.0969998836517	-3.9561567896685
3.1059999465942	-3.9351223818349
3.1150000095367	-3.9143166453736
3.1240000724792	-3.8937279812953
3.1329998970032	-3.8733472106023
3.1419999599457	-3.8531615865344
3.1510000228882	-3.8331587968708
3.1600000858307	-3.8133274185108
3.1689999103546	-3.7936548548229
3.1779999732971	-3.7741318161134
3.1870000362396	-3.7547423982477
3.1960000991821	-3.7354757768613
3.2049999237061	-3.7163226518331
3.2139999866486	-3.6972682590350
3.2230000495911	-3.6783013335159
3.2320001125336	-3.6594093486708
3.2409999370575	-3.6405839342163
3.2500000000000	-3.6218110457103
3.2590000629425	-3.6030811059719
3.2679998874664	-3.5843856027044
3.2769999504089	-3.5657126847802
3.2860000133514	-3.5470532712107
3.2950000762939	-3.5283981368160
3.3039999008179	-3.5097402920101
3.3129999637604	-3.4910709330327
3.3220000267029	-3.4723824985982
3.3310000896454	-3.4536706316821
3.3399999141693	-3.4349286773622
3.3489999771118	-3.4161508642340
3.3580000400543	-3.3973323621031
3.3670001029968	-3.3784716092956
3.3759999275208	-3.3595639749012
3.3849999904633	-3.3406094213892
3.3940000534058	-3.3216035807913
3.4030001163483	-3.3025488069420
3.4119999408722	-3.2834446540015
3.4210000038147	-3.2642943009508
3.4300000667572	-3.2450954201366
3.4389998912811	-3.2258550674804
3.4479999542236	-3.2065747470805
3.4570000171661	-3.1872587908655
3.4660000801086	-3.1679141814270
3.4749999046326	-3.1485462132105
3.4839999675751	-3.1291617460073
3.4930000305176	-3.1097678497392
3.5020000934601	-3.0903746793065
3.5109999179840	-3.0709893980277
3.5199999809265	-3.0516242338472
3.5290000438690	-3.0322871810315
3.5380001068115	-3.0129927317570
3.5469999313354	-2.9937486511472
3.5559999942780	-2.9745702007506
3.5650000572205	-2.9554699933340
3.5739998817444	-2.9364594364296
3.5829999446869	-2.9175554170341
3.5920000076294	-2.8987732786499
3.6010000705719	-2.8801237172187
3.6099998950958	-2.8616265183609
3.6189999580383	-2.8432947782632
3.6280000209808	-2.8251450845382
3.6370000839233	-2.8071950498848
3.6459999084473	-2.7894592268116
3.6549999713898	-2.7719567532270
3.6640000343323	-2.7547033073061
3.6730000972748	-2.7377180708571
3.6819999217987	-2.7210152118794
3.6909999847412	-2.7046159833096
3.7000000476837	-2.6885357262978
3.7090001106262	-2.6727928411812
3.7179999351501	-2.6574060178943
3.7269999980927	-2.6423914518401
3.7360000610352	-2.6277667951462
3.7449998855591	-2.6135519576544
3.7539999485016	-2.5997615635970
3.7630000114441	-2.5864154435996
3.7720000743866	-2.5735311263543
3.7809998989105	-2.5611240260014
3.7899999618530	-2.5492118441067
3.7990000247955	-2.5378126411334
3.8080000877380	-2.5269425535866
3.8169999122620	-2.5166178025874
3.8259999752045	-2.5068551443449
3.8350000381470	-2.4976696440175
3.8440001010895	-2.4890774819207
3.8529999256134	-2.4810969716203
3.8619999885559	-2.4737378938792
3.8710000514984	-2.4670201023067
3.8800001144409	-2.4609547703002
3.8889999389648	-2.4555573229334
3.8980000019073	-2.4508438194756
3.9070000648499	-2.4468255137339
3.9159998893738	-2.4435145866541
3.9249999523163	-2.4409264718605
3.9340000152588	-2.4390724465181
3.9430000782013	-2.4379659769328
3.9519999027252	-2.4376162005926
3.9609999656677	-2.4380352922914
3.9700000286102	-2.4392351799275
3.9790000915527	-2.4412252099232
3.9879999160767	-2.4440170638290
3.9969999790192	-2.4476196229463
4.0060000419617	-2.4520399244305
4.0149998664856	-2.4572882675183
4.0240001678467	-2.4633731562994
4.0329999923706	-2.4703013883990
4.0419998168945	-2.4780803042362
4.0510001182556	-2.4867160910520
4.0599999427795	-2.4962159142731
4.0689997673035	-2.5065835602300
4.0780000686646	-2.5178265057989
4.0869998931885	-2.5299459005410
4.0960001945496	-2.5429501991951
4.1050000190735	-2.5568393960763
4.1139998435974	-2.5716153755421
4.1230001449585	-2.5872826874532
4.1319999694824	-2.6038422759751
4.1409997940063	-2.6212932023465
4.1500000953674	-2.6396363920638
4.1589999198914	-2.6588734643283
4.1680002212524	-2.6789997241617
4.1770000457764	-2.7000153309793
4.1859998703003	-2.7219167773226
4.1950001716614	-2.7447029757799
4.2039999961853	-2.7683664056170
4.2129998207092	-2.7929047264034
4.2220001220703	-2.8183122761688
4.2309999465942	-2.8445823087647
4.2399997711182	-2.8717058119655
4.2490000724792	-2.8996780540026
4.2579998970032	-2.9284908616373
4.2670001983643	-2.9581312832693
4.2760000228882	-2.9885915861335
4.2849998474121	-3.0198599094628
4.2940001487732	-3.0519263520314
4.3029999732971	-3.0847756202712
4.3119997978210	-3.1183972825973
4.3210000991821	-3.1527749579863
4.3299999237061	-3.1878930103013
4.3390002250671	-3.2237370323617
4.3480000495911	-3.2602907704070
4.3569998741150	-3.2975366244368
4.3660001754761	-3.3354555169346
4.3750000000000	-3.3740284753929
4.3839998245239	-3.4132358830016
4.3930001258850	-3.4530582179449
4.4019999504089	-3.4934737158759
4.4109997749329	-3.5344597221139
4.4200000762939	-3.5759949119634
4.4289999008179	-3.6180530728772
4.4380002021790	-3.6606148060693
4.4470000267029	-3.7036491193172
4.4559998512268	-3.7471357915096
4.4650001525879	-3.7910463877018
4.4739999771118	-3.8353545680540
4.4829998016357	-3.8800354965420
4.4920001029968	-3.9250567476734
4.5009999275208	-3.9703922714650
4.5100002288818	-4.0160163895607
4.5190000534058	-4.0618959908009
4.5279998779297	-4.1080035886495
4.5370001792908	-4.1543079816816
4.5460000038147	-4.2007805198185
4.5549998283386	-4.2473890066248
4.5640001296997	-4.2941042470440
4.5729999542236	-4.3408940219803
4.5819997787476	-4.3877271266783
4.5910000801086	-4.4345732053055
4.5999999046326	-4.4813999416813
4.6090002059937	-4.5281763753852
4.6180000305176	-4.5748708220778
4.6269998550415	-4.6214518148996
4.6360001564026	-4.6678885832854
4.6449999809265	-4.7141498915825
4.6539998054504	-4.7602035261142
4.6630001068115	-4.8060210681948
4.6719999313354	-4.8515706860914
4.6810002326965	-4.8968210396915
4.6900000572205	-4.9417440860195
4.6989998817444	-4.9863111766608
4.7080001831055	-5.0304919779467
4.7170000076294	-5.0742578893804
4.7259998321533	-5.1175825599950
4.7350001335144	-5.1604362950472
4.7439999580383	-5.2027968552748
4.7529997825623	-5.2446352898206
4.7620000839233	-5.2859271454558
4.7709999084473	-5.3266460489706
4.7800002098083	-5.3667729660043
4.7890000343323	-5.4062818784240
4.7979998588562	-5.4451539141209
4.8070001602173	-5.4833647329606
4.8159999847412	-5.5208980227181
4.8249998092651	-5.5577324443446
4.8340001106262	-5.5938521882452
4.8429999351501	-5.6292389924545
4.8520002365112	-5.6638798883501
4.8610000610352	-5.6977582735384
4.8699998855591	-5.7308607380648
4.8790001869202	-5.7631767681147
4.8880000114441	-5.7946939441510
4.8969998359680	-5.8254039835866
4.9060001373291	-5.8552985250696
4.9149999618530	-5.8843696179843
4.9239997863770	-5.9126127123149
4.9330000877380	-5.9400213651831
4.9419999122620	-5.9665928091026
4.9510002136230	-5.9923265643233
4.9600000381470	-6.0172197045522
4.9689998626709	-6.0412739342285
4.9780001640320	-6.0644908142408
4.9869999885559	-6.0868735075498
4.9959998130798	-6.1084273620467
5.0050001144409	-6.1291558441639
5.0139999389648	-6.1490666211825
5.0229997634888	-6.1681691471543
5.0320000648499	-6.1864694755250
5.0409998893738	-6.2039803563697
5.0500001907349	-6.2207120124102
5.0590000152588	-6.2366783915842
5.0679998397827	-6.2518924561416
5.0770001411438	-6.2663683885955
5.0859999656677	-6.2801230470283
5.0949997901917	-6.2931728036938
5.1040000915527	-6.3055338774962
5.1129999160767	-6.3172287029110
5.1220002174377	-6.3282742638747
5.1310000419617	-6.3386908595054
5.1399998664856	-6.3484998795809
5.1490001678467	-6.3577223698098
5.1579999923706	-6.3663852988866
5.1669998168945	-6.3745074678328
5.1760001182556	-6.3821152614611
5.1849999427795	-6.3892341254688
5.1939997673035	-6.3958861777751
5.2030000686646	-6.4021027875114
5.2119998931885	-6.4079044918219
5.2210001945496	-6.4133221312673
5.2300000190735	-6.4183826099162
5.2389998435974	-6.4231124741526
5.2480001449585	-6.4275425791554
5.2569999694824	-6.4316969220072
5.2659997940063	-6.4356100915762
5.2750000953674	-6.4393061296673
5.2839999198914	-6.4428159136136
5.2930002212524	-6.4461707566819
5.3020000457764	-6.4494008525013
5.3109998703003	-6.4525321110242
5.3200001716614	-6.4555999564234
5.3289999961853	-6.4586302662005
5.3379998207092	-6.4616575972350
5.3470001220703	-6.4647096979047
5.3559999465942	-6.4678181722528
5.3649997711182	-6.4710142253624
5.3740000724792	-6.4743276279826
5.3829998970032	-6.4777896545636
5.3920001983643	-6.4814313832612
5.4010000228882	-6.4852850942848
5.4099998474121	-6.4893794679801
5.4190001487732	-6.4937474016213
5.4279999732971	-6.4984206545673
5.4369997978210	-6.5034275049205
5.4460000991821	-6.5088006636413
5.4549999237061	-6.5145718861937
5.4640002250671	-6.5207725488580
5.4730000495911	-6.5274324309538
5.4819998741150	-6.5345839884881
5.4910001754761	-6.5422590236144
5.5000000000000	-6.5504883621551
5.5089998245239	-6.5593047525500
5.5180001258850	-6.5687382940695
5.5269999504089	-6.5788208988700
5.5359997749329	-6.5895864493870
5.5450000762939	-6.6010644534894
5.5539999008179	-6.6132886625181
5.5630002021790	-6.6262925680649
5.5720000267029	-6.6401062229407
5.5809998512268	-6.6547642296670
5.5900001525879	-6.6702992986363
5.5989999771118	-6.6867425291405
5.6079998016357	-6.7041307950807
5.6170001029968	-6.7224981409553
5.6259999275208	-6.7418751308756
5.6350002288818	-6.7622993245050
5.6440000534058	-6.7838059394406
5.6529998779297	-6.8064269480111
5.6620001792908	-6.8302019246324
5.6710000038147	-6.8551646430762
5.6799998283386	-6.8813514949448
5.6890001296997	-6.9088003318290
5.6979999542236	-6.9375507172640
5.7069997787476	-6.9676380887004
5.7160000801086	-6.9991027000570
5.7249999046326	-7.0319837189975
5.7340002059937	-7.0663207653659
5.7430000305176	-7.1021563047449
5.7519998550415	-7.1395303492404
5.7610001564026	-7.1784852221783
5.7699999809265	-7.2190639429571
5.7789998054504	-7.2613120961261
5.7880001068115	-7.3052746479921
5.7969999313354	-7.3509942298622
5.8060002326965	-7.3985225235319
5.8150000572205	-7.4479034369135
5.8239998817444	-7.4991869241368
5.8330001831055	-7.5524249153864
5.8420000076294	-7.6076661224243
5.8509998321533	-7.6649678008482
5.8600001335144	-7.7243781688805
5.8689999580383	-7.7859561545867
5.8779997825623	-7.8497574849294
5.8870000839233	-7.9158393504881
5.8959999084473	-7.9842647492323
5.9050002098083	-8.0550930621429
5.9140000343323	-8.1283892432030
5.9229998588562	-8.2042154552992
5.9320001602173	-8.2826439771058
5.9409999847412	-8.3637404762741
5.9499998092651	-8.4475795187202
5.9590001106262	-8.5342324768764
5.9679999351501	-8.6237775237389
5.9770002365112	-8.7162927092691
5.9860000610352	-8.8118615796676
5.9949998855591	-8.9105673746261
6.0040001869202	-9.0124980482716
6.0130000114441	-9.1177457415555
6.0219998359680	-9.2264050341289
6.0310001373291	-9.3385718121049
6.0399999618530	-9.4543529878909
6.0489997863770	-9.5738503148833
6.0580000877380	-9.6971747699205
6.0669999122620	-9.8244451798737
6.0760002136230	-9.9557785662993
6.0850000381470	-10.091302588591
6.0939998626709	-10.231146831584
6.1030001640320	-10.375447248485
6.1119999885559	-10.524347856194
6.1209998130798	-10.678000635645
6.1300001144409	-10.836556948445
6.1389999389648	-11.000185059789
6.1479997634888	-11.169056655066
6.1570000648499	-11.343351411212
6.1659998893738	-11.523255607063
6.1750001907349	-11.708968917431
6.1840000152588	-11.900698380656
6.1929998397827	-12.098660007493
6.2020001411438	-12.303081497248
6.2109999656677	-12.514198422944
6.2199997901917	-12.732258537716
6.2290000915527	-12.957519184828
6.2379999160767	-13.190247951507
6.2470002174377	-13.430720251026
6.2560000419617	-13.679219172128
6.2649998664856	-13.936036977834
6.2740001678467	-14.201463278281
6.2829999923706	-14.475793423941
6.2919998168945	-14.759316496225
6.3010001182556	-15.052304183106
6.3099999427795	-15.355013978495
6.3189997673035	-15.667662483318
6.3280000686646	-15.990419807972
6.3369998931885	-16.323378129556
6.3460001945496	-16.666530438317
6.3550000190735	-17.019726502067
6.3639998435974	-17.382626620007
6.3730001449585	-17.754630770953
6.3819999694824	-18.134806277189
6.3909997940063	-18.521781225861
