#Parameters = {h=1.5; l=55; n=19.5; w=50; wp=3; x=13}
#"Frequency / GHz"	"S1,1 (34) [Magnitude / dB]"
#----------------------------------------------
1.0000000000000	-0.38782715589767
1.0089999437332	-0.38271429793805
1.0180000066757	-0.37985982297525
1.0269999504089	-0.37932685247655
1.0360000133514	-0.38117427674516
1.0449999570847	-0.38546263746777
1.0540000200272	-0.39224656807799
1.0629999637604	-0.40158440142741
1.0720000267029	-0.41352988052367
1.0809999704361	-0.42813674872596
1.0900000333786	-0.44545709355096
1.0989999771118	-0.46554645584616
1.1080000400543	-0.48845624597747
1.1169999837875	-0.51423673325276
1.1260000467300	-0.54294178119315
1.1349999904633	-0.57462284646314
1.1440000534058	-0.60933327554560
1.1529999971390	-0.64712550673559
1.1619999408722	-0.68805531579835
1.1710000038147	-0.73217602931821
1.1799999475479	-0.77954273300508
1.1890000104904	-0.83021125911002
1.1979999542236	-0.88424354652067
1.2070000171661	-0.94169343928630
1.2159999608994	-1.0026259041232
1.2250000238419	-1.0670991949512
1.2339999675751	-1.1351808508510
1.2430000305176	-1.2069346001406
1.2519999742508	-1.2824300967998
1.2610000371933	-1.3617334909263
1.2699999809265	-1.4449215485020
1.2790000438690	-1.5320654690047
1.2879999876022	-1.6232420365195
1.2970000505447	-1.7185320505904
1.3059999942780	-1.8180183777681
1.3150000572205	-1.9217853708948
1.3240000009537	-2.0299231720595
1.3329999446869	-2.1425221564800
1.3420000076294	-2.2596787717751
1.3509999513626	-2.3814919117496
1.3600000143051	-2.5080648777344
1.3689999580383	-2.6395062657958
1.3780000209808	-2.7759253800134
1.3869999647141	-2.9174405664550
1.3960000276566	-3.0641745190519
1.4049999713898	-3.2162517470736
1.4140000343323	-3.3738083563073
1.4229999780655	-3.5369793663485
1.4320000410080	-3.7059098416566
1.4409999847412	-3.8807544198511
1.4500000476837	-4.0616704788563
1.4589999914169	-4.2488256943807
1.4680000543594	-4.4423933377393
1.4769999980927	-4.6425570907164
1.4859999418259	-4.8495076331377
1.4950000047684	-5.0634496015318
1.5039999485016	-5.2845898908795
1.5130000114441	-5.5131544072194
1.5219999551773	-5.7493712287592
1.5310000181198	-5.9934856515272
1.5399999618530	-6.2457465058517
1.5490000247955	-6.5064213330233
1.5579999685287	-6.7757810783163
1.5670000314713	-7.0541078758470
1.5759999752045	-7.3416926284804
1.5850000381470	-7.6388305460906
1.5939999818802	-7.9458179528789
1.6030000448227	-8.2629515545593
1.6119999885559	-8.5905158498899
1.6210000514984	-8.9287803092138
1.6299999952316	-9.2779853800785
1.6390000581741	-9.6383259990743
1.6480000019073	-10.009931844502
1.6569999456406	-10.392835913263
1.6660000085831	-10.786943609040
1.6749999523163	-11.191981757436
1.6840000152588	-11.607428197251
1.6929999589920	-12.032445946535
1.7020000219345	-12.465765052434
1.7109999656677	-12.905567149655
1.7200000286102	-13.349327009671
1.7289999723434	-13.793638847157
1.7380000352859	-14.234032247285
1.7469999790192	-14.664791838207
1.7560000419617	-15.078840187635
1.7649999856949	-15.467720109528
1.7740000486374	-15.821792530918
1.7829999923706	-16.130696168973
1.7920000553131	-16.384134492924
1.8009999990463	-16.572950101300
1.8099999427795	-16.690307751015
1.8190000057220	-16.732727619050
1.8279999494553	-16.700646824668
1.8370000123978	-16.598342663626
1.8459999561310	-16.433242896253
1.8550000190735	-16.214827579189
1.8639999628067	-15.953451488552
1.8730000257492	-15.659332279423
1.8819999694824	-15.341823855707
1.8910000324249	-15.009032896627
1.8999999761581	-14.667681837427
1.9090000391006	-14.323142682663
1.9179999828339	-13.979590625059
1.9270000457764	-13.640171213846
1.9359999895096	-13.307192682118
1.9450000524521	-12.982296532894
1.9539999961853	-12.666604282307
1.9630000591278	-12.360836327803
1.9720000028610	-12.065411230180
1.9809999465942	-11.780519912032
1.9900000095367	-11.506186281200
1.9989999532700	-11.242315458438
2.0079998970032	-10.988727660155
2.0169999599457	-10.745174999910
2.0260000228882	-10.511377575904
2.0350000858307	-10.287025775108
2.0439999103546	-10.071794496021
2.0529999732971	-9.8653588610233
2.0620000362396	-9.6673828047980
2.0710000991821	-9.4775425035656
2.0799999237061	-9.2955172670083
2.0889999866486	-9.1209901184514
2.0980000495911	-8.9536605942214
2.1070001125336	-8.7932368802028
2.1159999370575	-8.6394373080776
2.1250000000000	-8.4919912004623
2.1340000629425	-8.3506372774136
2.1429998874664	-8.2151259666153
2.1519999504089	-8.0852190275473
2.1610000133514	-7.9606864797101
2.1700000762939	-7.8413099855322
2.1789999008179	-7.7268748347722
2.1879999637604	-7.6171826871641
2.1970000267029	-7.5120365009741
2.2060000896454	-7.4112490710256
2.2149999141693	-7.3146405167028
2.2239999771118	-7.2220381849197
2.2330000400543	-7.1332731552382
2.2420001029968	-7.0481858998389
2.2509999275208	-6.9666187365523
2.2599999904633	-6.8884211249297
2.2690000534058	-6.8134475544934
2.2780001163483	-6.7415534456640
2.2869999408722	-6.6726043580984
2.2960000038147	-6.6064660569560
2.3050000667572	-6.5430076007619
2.3139998912811	-6.4821023679377
2.3229999542236	-6.4236300508095
2.3320000171661	-6.3674682248560
2.3410000801086	-6.3135014315381
2.3499999046326	-6.2616157614055
2.3589999675751	-6.2117003151608
2.3680000305176	-6.1636466385880
2.3770000934601	-6.1173489926146
2.3859999179840	-6.0727061311135
2.3949999809265	-6.0296173988363
2.4040000438690	-5.9879852823794
2.4130001068115	-5.9477138457203
2.4219999313354	-5.9087123651571
2.4309999942780	-5.8708893237475
2.4400000572205	-5.8341581427198
2.4489998817444	-5.7984338662381
2.4579999446869	-5.7636361544009
2.4670000076294	-5.7296845573769
2.4760000705719	-5.6965022791057
2.4849998950958	-5.6640160399790
2.4939999580383	-5.6321545049313
2.5030000209808	-5.6008504433517
2.5120000839233	-5.5700380202846
2.5209999084473	-5.5396562517856
2.5299999713898	-5.5096448617409
2.5390000343323	-5.4799482037517
2.5480000972748	-5.4505151882825
2.5569999217987	-5.4212929802120
2.5659999847412	-5.3922366143394
2.5750000476837	-5.3633029057115
2.5840001106262	-5.3344514344516
2.5929999351501	-5.3056442528993
2.6019999980927	-5.2768502820810
2.6110000610352	-5.2480351061728
2.6199998855591	-5.2191723553436
2.6289999485016	-5.1902399615746
2.6380000114441	-5.1612144393036
2.6470000743866	-5.1320767160303
2.6559998989105	-5.1028139853551
2.6649999618530	-5.0734120919939
2.6740000247955	-5.0438615509966
2.6830000877380	-5.0141554741004
2.6919999122620	-4.9842880533837
2.7009999752045	-4.9542604700808
2.7100000381470	-4.9240714272717
2.7190001010895	-4.8937219223287
2.7279999256134	-4.8632185992033
2.7369999885559	-4.8325694782009
2.7460000514984	-4.8017784666450
2.7550001144409	-4.7708613176144
2.7639999389648	-4.7398278392625
2.7730000019073	-4.7086905812172
2.7820000648499	-4.6774652461670
2.7909998893738	-4.6461667997473
2.7999999523163	-4.6148136111506
2.8090000152588	-4.5834218826743
2.8180000782013	-4.5520106953581
2.8269999027252	-4.5205992003519
2.8359999656677	-4.4892063796271
2.8450000286102	-4.4578509787717
2.8540000915527	-4.4265554415506
2.8629999160767	-4.3953382958281
2.8719999790192	-4.3642197905055
2.8810000419617	-4.3332197652918
2.8900001049042	-4.3023581630569
2.8989999294281	-4.2716546466136
2.9079999923706	-4.2411277671355
2.9170000553131	-4.2107953976245
2.9260001182556	-4.1806766163591
2.9349999427795	-4.1507864875193
2.9440000057220	-4.1211444398266
2.9530000686646	-4.0917631404106
2.9619998931885	-4.0626587041955
2.9709999561310	-4.0338449570298
2.9800000190735	-4.0053345873374
2.9890000820160	-3.9771404688315
2.9979999065399	-3.9492705454905
3.0069999694824	-3.9217382013746
3.0160000324249	-3.8945511959647
3.0250000953674	-3.8677158060223
3.0339999198914	-3.8412389661302
3.0429999828339	-3.8151286196915
3.0520000457764	-3.7893860666215
3.0610001087189	-3.7640165009929
3.0699999332428	-3.7390224720023
3.0789999961853	-3.7144048924094
3.0880000591278	-3.6901622568919
3.0969998836517	-3.6662959020389
3.1059999465942	-3.6428047215144
3.1150000095367	-3.6196819831862
3.1240000724792	-3.5969273653009
3.1329998970032	-3.5745345743134
3.1419999599457	-3.5524992054561
3.1510000228882	-3.5308138732413
3.1600000858307	-3.5094728593938
3.1689999103546	-3.4884658652281
3.1779999732971	-3.4677854404506
3.1870000362396	-3.4474233467876
3.1960000991821	-3.4273682762466
3.2049999237061	-3.4076104113034
3.2139999866486	-3.3881386635873
3.2230000495911	-3.3689407526849
3.2320001125336	-3.3500074644792
3.2409999370575	-3.3313237950249
3.2500000000000	-3.3128792537115
3.2590000629425	-3.2946595756409
3.2679998874664	-3.2766550238879
3.2769999504089	-3.2588500339889
3.2860000133514	-3.2412335388027
3.2950000762939	-3.2237914794762
3.3039999008179	-3.2065121964287
3.3129999637604	-3.1893838613055
3.3220000267029	-3.1723934557941
3.3310000896454	-3.1555277487284
3.3399999141693	-3.1387783444496
3.3489999771118	-3.1221319979024
3.3580000400543	-3.1055773784336
3.3670001029968	-3.0891063926408
3.3759999275208	-3.0727070496739
3.3849999904633	-3.0563722069046
3.3940000534058	-3.0400933544853
3.4030001163483	-3.0238635859742
3.4119999408722	-3.0076728395912
3.4210000038147	-2.9915181373143
3.4300000667572	-2.9753939018641
3.4389998912811	-2.9592936436645
3.4479999542236	-2.9432163192795
3.4570000171661	-2.9271582224038
3.4660000801086	-2.9111168362817
3.4749999046326	-2.8950949535165
3.4839999675751	-2.8790896997967
3.4930000305176	-2.8631020206683
3.5020000934601	-2.8471367678483
3.5109999179840	-2.8311939768581
3.5199999809265	-2.8152814657304
3.5290000438690	-2.7994027367153
3.5380001068115	-2.7835637867568
3.5469999313354	-2.7677716292642
3.5559999942780	-2.7520377408182
3.5650000572205	-2.7363659711850
3.5739998817444	-2.7207696770316
3.5829999446869	-2.7052605831153
3.5920000076294	-2.6898466426036
3.6010000705719	-2.6745456248039
3.6099998950958	-2.6593664062114
3.6189999580383	-2.6443269207453
3.6280000209808	-2.6294413008255
3.6370000839233	-2.6147237709470
3.6459999084473	-2.6001896674956
3.6549999713898	-2.5858598929656
3.6640000343323	-2.5717508044664
3.6730000972748	-2.5578801740431
3.6819999217987	-2.5442650943161
3.6909999847412	-2.5309265599596
3.7000000476837	-2.5178847249384
3.7090001106262	-2.5051573869198
3.7179999351501	-2.4927670952503
3.7269999980927	-2.4807316164243
3.7360000610352	-2.4690745902235
3.7449998855591	-2.4578160289694
3.7539999485016	-2.4469768066797
3.7630000114441	-2.4365767887262
3.7720000743866	-2.4266415149424
3.7809998989105	-2.4171870426693
3.7899999618530	-2.4082375071055
3.7990000247955	-2.3998158684424
3.8080000877380	-2.3919408958406
3.8169999122620	-2.3846351360834
3.8259999752045	-2.3779175863446
3.8350000381470	-2.3718108076792
3.8440001010895	-2.3663349308903
3.8529999256134	-2.3615107022821
3.8619999885559	-2.3573571793369
3.8710000514984	-2.3538960681183
3.8800001144409	-2.3511433325623
3.8889999389648	-2.3491225103863
3.8980000019073	-2.3478481509473
3.9070000648499	-2.3473413690789
3.9159998893738	-2.3476197918805
3.9249999523163	-2.3486997943193
3.9340000152588	-2.3505972765436
3.9430000782013	-2.3533304785006
3.9519999027252	-2.3569153547946
3.9609999656677	-2.3613647302914
3.9700000286102	-2.3666963539014
3.9790000915527	-2.3729222496540
3.9879999160767	-2.3800569930855
3.9969999790192	-2.3881120328554
4.0060000419617	-2.3971016015605
4.0149998664856	-2.4070356653598
4.0240001678467	-2.4179258144896
4.0329999923706	-2.4297792561132
4.0419998168945	-2.4426077459323
4.0510001182556	-2.4564205191569
4.0599999427795	-2.4712238587837
4.0689997673035	-2.4870236060543
4.0780000686646	-2.5038270362905
4.0869998931885	-2.5216398438791
4.0960001945496	-2.5404653116696
4.1050000190735	-2.5603064095083
4.1139998435974	-2.5811657336582
4.1230001449585	-2.6030458979271
4.1319999694824	-2.6259469875880
4.1409997940063	-2.6498666084118
4.1500000953674	-2.6748045023955
4.1589999198914	-2.7007602961790
4.1680002212524	-2.7277262707750
4.1770000457764	-2.7557004676344
4.1859998703003	-2.7846772316386
4.1950001716614	-2.8146501118878
4.2039999961853	-2.8456082180498
4.2129998207092	-2.8775473686977
4.2220001220703	-2.9104540474353
4.2309999465942	-2.9443187393272
4.2399997711182	-2.9791262310351
4.2490000724792	-3.0148679290616
4.2579998970032	-3.0515255771203
4.2670001983643	-3.0890858802812
4.2760000228882	-3.1275298739521
4.2849998474121	-3.1668411799926
4.2940001487732	-3.2070010720496
4.3029999732971	-3.2479871631883
4.3119997978210	-3.2897808293162
4.3210000991821	-3.3323570661801
4.3299999237061	-3.3756942618301
4.3390002250671	-3.4197675880498
4.3480000495911	-3.4645514976906
4.3569998741150	-3.5100188746946
4.3660001754761	-3.5561432221343
4.3750000000000	-3.6028955011536
4.3839998245239	-3.6502453920823
4.3930001258850	-3.6981634563262
4.4019999504089	-3.7466187362967
4.4109997749329	-3.7955783354604
4.4200000762939	-3.8450095356866
4.4289999008179	-3.8948800967385
4.4380002021790	-3.9451527459991
4.4470000267029	-3.9957952849085
4.4559998512268	-4.0467717816366
4.4650001525879	-4.0980443658141
4.4739999771118	-4.1495795438378
4.4829998016357	-4.2013363237878
4.4920001029968	-4.2532809686321
4.5009999275208	-4.3053740364869
4.5100002288818	-4.3575774112799
4.5190000534058	-4.4098531542590
4.5279998779297	-4.4621638909200
4.5370001792908	-4.5144689135718
4.5460000038147	-4.5667323894461
4.5549998283386	-4.6189151546966
4.5640001296997	-4.6709777552578
4.5729999542236	-4.7228862786571
4.5819997787476	-4.7745977747584
4.5910000801086	-4.8260786511300
4.5999999046326	-4.8772912166028
4.6090002059937	-4.9281984829908
4.6180000305176	-4.9787657885427
4.6269998550415	-5.0289559635119
4.6360001564026	-5.0787362612355
4.6449999809265	-5.1280733856336
4.6539998054504	-5.1769330580215
4.6630001068115	-5.2252844139314
4.6719999313354	-5.2730968339869
4.6810002326965	-5.3203385146488
4.6900000572205	-5.3669823483656
4.6989998817444	-5.4129986834124
4.7080001831055	-5.4583617310831
4.7170000076294	-5.5030467636531
4.7259998321533	-5.5470294635339
4.7350001335144	-5.5902864803488
4.7439999580383	-5.6327967719301
4.7529997825623	-5.6745380377546
4.7620000839233	-5.7154936914212
4.7709999084473	-5.7556462848240
4.7800002098083	-5.7949784814778
4.7890000343323	-5.8334770547346
4.7979998588562	-5.8711280841612
4.8070001602173	-5.9079211532251
4.8159999847412	-5.9438458233632
4.8249998092651	-5.9788928512622
4.8340001106262	-6.0130547524412
4.8429999351501	-6.0463268746440
4.8520002365112	-6.0787046599267
4.8610000610352	-6.1101870530650
4.8699998855591	-6.1407701831745
4.8790001869202	-6.1704548605634
4.8880000114441	-6.1992424382603
4.8969998359680	-6.2271360659644
4.9060001373291	-6.2541400395084
4.9149999618530	-6.2802588575742
4.9239997863770	-6.3055001508101
4.9330000877380	-6.3298724093610
4.9419999122620	-6.3533814902842
4.9510002136230	-6.3760409057975
4.9600000381470	-6.3978600273636
4.9689998626709	-6.4188520489482
4.9780001640320	-6.4390290503717
4.9869999885559	-6.4584078970646
4.9959998130798	-6.4769997976995
5.0050001144409	-6.4948239281699
5.0139999389648	-6.5118953348998
5.0229997634888	-6.5282326325861
5.0320000648499	-6.5438528113258
5.0409998893738	-6.5587783511956
5.0500001907349	-6.5730247414567
5.0590000152588	-6.5866150500513
5.0679998397827	-6.5995696538770
5.0770001411438	-6.6119105046089
5.0859999656677	-6.6236585602186
5.0949997901917	-6.6348382178877
5.1040000915527	-6.6454703523147
5.1129999160767	-6.6555817309775
5.1220002174377	-6.6651941975879
5.1310000419617	-6.6743326750395
5.1399998664856	-6.6830228503294
5.1490001678467	-6.6912890847207
5.1579999923706	-6.6991562495816
5.1669998168945	-6.7066539246590
5.1760001182556	-6.7138078064697
5.1849999427795	-6.7206430499223
5.1939997673035	-6.7271877413140
5.2030000686646	-6.7334713490635
5.2119998931885	-6.7395202797345
5.2210001945496	-6.7453627411287
5.2300000190735	-6.7510317139226
5.2389998435974	-6.7565515509994
5.2480001449585	-6.7619569300971
5.2569999694824	-6.7672758953562
5.2659997940063	-6.7725405851947
5.2750000953674	-6.7777829533839
5.2839999198914	-6.7830327242243
5.2930002212524	-6.7883245379913
5.3020000457764	-6.7936903725205
5.3109998703003	-6.7991654281435
5.3200001716614	-6.8047836984178
5.3289999961853	-6.8105789946647
5.3379998207092	-6.8165883526891
5.3470001220703	-6.8228471409321
5.3559999465942	-6.8293922414144
5.3649997711182	-6.8362628026325
5.3740000724792	-6.8434947979793
5.3829998970032	-6.8511292347280
5.3920001983643	-6.8592049203188
5.4010000228882	-6.8677639601025
5.4099998474121	-6.8768454006836
5.4190001487732	-6.8864928951990
5.4279999732971	-6.8967489505198
5.4369997978210	-6.9076571891795
5.4460000991821	-6.9192620860110
5.4549999237061	-6.9316092636016
5.4640002250671	-6.9447448750406
5.4730000495911	-6.9587177215103
5.4819998741150	-6.9735723241926
5.4910001754761	-6.9893594252979
5.5000000000000	-7.0061280546942
5.5089998245239	-7.0239287540181
5.5180001258850	-7.0428134287148
5.5269999504089	-7.0628334044801
5.5359997749329	-7.0840416422309
5.5450000762939	-7.1064932251686
5.5539999008179	-7.1302429103704
5.5630002021790	-7.1553429392251
5.5720000267029	-7.1818541977917
5.5809998512268	-7.2098311348799
5.5900001525879	-7.2393342094227
5.5989999771118	-7.2704194488639
5.6079998016357	-7.3031493767871
5.6170001029968	-7.3375843242642
5.6259999275208	-7.3737829364610
5.6350002288818	-7.4118109359638
5.6440000534058	-7.4517274794853
5.6529998779297	-7.4936008524766
5.6620001792908	-7.5374923819075
5.6710000038147	-7.5834676457386
5.6799998283386	-7.6315920043705
5.6890001296997	-7.6819354586551
5.6979999542236	-7.7345602701193
5.7069997787476	-7.7895382057893
5.7160000801086	-7.8469345929356
5.7249999046326	-7.9068207303136
5.7340002059937	-7.9692621252840
5.7430000305176	-8.0343308877523
5.7519998550415	-8.1020966173863
5.7610001564026	-8.1726269508358
5.7699999809265	-8.2459937092709
5.7789998054504	-8.3222647193788
5.7880001068115	-8.4015099833017
5.7969999313354	-8.4837980906258
5.8060002326965	-8.5691969213995
5.8150000572205	-8.6577721175717
5.8239998817444	-8.7495904412548
5.8330001831055	-8.8447151441717
5.8420000076294	-8.9432090023340
5.8509998321533	-9.0451294210842
5.8600001335144	-9.1505331490417
5.8689999580383	-9.2594746724494
5.8779997825623	-9.3719985429667
5.8870000839233	-9.4881491420807
5.8959999084473	-9.6079641214373
5.9050002098083	-9.7314733226592
5.9140000343323	-9.8586953750495
5.9229998588562	-9.9896448124711
5.9320001602173	-10.124320187747
5.9409999847412	-10.262707355653
5.9499998092651	-10.404780031618
5.9590001106262	-10.550488947881
5.9679999351501	-10.699771587681
5.9770002365112	-10.852533603887
5.9860000610352	-11.008661418495
5.9949998855591	-11.168006970455
6.0040001869202	-11.330388764883
6.0130000114441	-11.495586646494
6.0219998359680	-11.663332467221
6.0310001373291	-11.833313709979
6.0399999618530	-12.005157015244
6.0489997863770	-12.178430302474
6.0580000877380	-12.352634842694
6.0669999122620	-12.527192361625
6.0760002136230	-12.701448282878
6.0850000381470	-12.874662585278
6.0939998626709	-13.046003837515
6.1030001640320	-13.214549994273
6.1119999885559	-13.379289289919
6.1209998130798	-13.539114959497
6.1300001144409	-13.692841493178
6.1389999389648	-13.839213663291
6.1479997634888	-13.976915494674
6.1570000648499	-14.104602176919
6.1659998893738	-14.220922224498
6.1750001907349	-14.324548492961
6.1840000152588	-14.414220816580
6.1929998397827	-14.488784927876
6.2020001411438	-14.547223321062
6.2109999656677	-14.588707581424
6.2199997901917	-14.612621526154
6.2290000915527	-14.618593443154
6.2379999160767	-14.606509641098
6.2470002174377	-14.576518026899
6.2560000419617	-14.529022418420
6.2649998664856	-14.464666743392
6.2740001678467	-14.384303764029
6.2829999923706	-14.288963062989
6.2919998168945	-14.179815360442
6.3010001182556	-14.058121591758
6.3099999427795	-13.925209516334
6.3189997673035	-13.782420067662
6.3280000686646	-13.631087514770
6.3369998931885	-13.472509385253
6.3460001945496	-13.307922233706
6.3550000190735	-13.138498132235
6.3639998435974	-12.965313983655
6.3730001449585	-12.789364367543
6.3819999694824	-12.611551137725
6.3909997940063	-12.432684573276
