#Parameters = {h=1.5; l=55; n=20.5; w=50; wp=3; x=13}
#"Frequency / GHz"	"S1,1 (36) [Magnitude / dB]"
#----------------------------------------------
1.0000000000000	-0.40490673885499
1.0089999437332	-0.40146895713247
1.0180000066757	-0.40016170365422
1.0269999504089	-0.40104354350041
1.0360000133514	-0.40417492396319
1.0449999570847	-0.40961309886546
1.0540000200272	-0.41741481299450
1.0629999637604	-0.42763454743061
1.0720000267029	-0.44032910604567
1.0809999704361	-0.45555010156523
1.0900000333786	-0.47335249177087
1.0989999771118	-0.49378909455621
1.1080000400543	-0.51691375781796
1.1169999837875	-0.54277671413477
1.1260000467300	-0.57143531998149
1.1349999904633	-0.60294139589104
1.1440000534058	-0.63734785485697
1.1529999971390	-0.67471181492872
1.1619999408722	-0.71508668252065
1.1710000038147	-0.75853062102241
1.1799999475479	-0.80510066426743
1.1890000104904	-0.85485352409103
1.1979999542236	-0.90785054315804
1.2070000171661	-0.96415444662095
1.2159999608994	-1.0238260232066
1.2250000238419	-1.0869299220926
1.2339999675751	-1.1535350992695
1.2430000305176	-1.2237051739205
1.2519999742508	-1.2975156236284
1.2610000371933	-1.3750375133761
1.2699999809265	-1.4563436593627
1.2790000438690	-1.5415137785797
1.2879999876022	-1.6306283797864
1.2970000505447	-1.7237692766263
1.3059999942780	-1.8210225479185
1.3150000572205	-1.9224772954948
1.3240000009537	-2.0282266480398
1.3329999446869	-2.1383674871024
1.3420000076294	-2.2529966189507
1.3509999513626	-2.3722211986173
1.3600000143051	-2.4961473335652
1.3689999580383	-2.6248873756904
1.3780000209808	-2.7585587454139
1.3869999647141	-2.8972835964351
1.3960000276566	-3.0411900376771
1.4049999713898	-3.1904101095127
1.4140000343323	-3.3450823552765
1.4229999780655	-3.5053538313544
1.4320000410080	-3.6713763228274
1.4409999847412	-3.8433097574580
1.4500000476837	-4.0213218943427
1.4589999914169	-4.2055856819121
1.4680000543594	-4.3962895908463
1.4769999980927	-4.5936228504188
1.4859999418259	-4.7977909814746
1.4950000047684	-5.0090073852055
1.5039999485016	-5.2274953346645
1.5130000114441	-5.4534925671361
1.5219999551773	-5.6872455917638
1.5310000181198	-5.9290132749460
1.5399999618530	-6.1790677024985
1.5490000247955	-6.4376967107350
1.5579999685287	-6.7051941015592
1.5670000314713	-6.9818722071849
1.5759999752045	-7.2680497331447
1.5850000381470	-7.5640571385558
1.5939999818802	-7.8702311898071
1.6030000448227	-8.1869120622874
1.6119999885559	-8.5144353671774
1.6210000514984	-8.8531317380373
1.6299999952316	-9.2033082247869
1.6390000581741	-9.5652364245035
1.6480000019073	-9.9391357984345
1.6569999456406	-10.325144674702
1.6660000085831	-10.723283117612
1.6749999523163	-11.133410085094
1.6840000152588	-11.555153985289
1.6929999589920	-11.987836620953
1.7020000219345	-12.430364433641
1.7109999656677	-12.881094487249
1.7200000286102	-13.337663798506
1.7289999723434	-13.796794427664
1.7380000352859	-14.254073645002
1.7469999790192	-14.703722774651
1.7560000419617	-15.138415959292
1.7649999856949	-15.549199687387
1.7740000486374	-15.925624282662
1.7829999923706	-16.256187023858
1.7920000553131	-16.529185969331
1.8009999990463	-16.733940052824
1.8099999427795	-16.862229845568
1.8190000057220	-16.909608434282
1.8279999494553	-16.876170675145
1.8370000123978	-16.766542700650
1.8459999561310	-16.589059136229
1.8550000190735	-16.354447192866
1.8639999628067	-16.074391208211
1.8730000257492	-15.760316267238
1.8819999694824	-15.422570057169
1.8910000324249	-15.069987556317
1.8999999761581	-14.709779937095
1.9090000391006	-14.347611619076
1.9179999828339	-13.987801726945
1.9270000457764	-13.633538718678
1.9359999895096	-13.287108701785
1.9450000524521	-12.950088411593
1.9539999961853	-12.623514035630
1.9630000591278	-12.308009944920
1.9720000028610	-12.003898558759
1.9809999465942	-11.711280184443
1.9900000095367	-11.430089754258
1.9989999532700	-11.160155102351
2.0079998970032	-10.901217550851
2.0169999599457	-10.652969847636
2.0260000228882	-10.415072562930
2.0350000858307	-10.187161240040
2.0439999103546	-9.9688689084060
2.0529999732971	-9.7598227640723
2.0620000362396	-9.5596544435396
2.0710000991821	-9.3680039010979
2.0799999237061	-9.1845189529395
2.0889999866486	-9.0088626850252
2.0980000495911	-8.8407037520878
2.1070001125336	-8.6797283946590
2.1159999370575	-8.5256346180500
2.1250000000000	-8.3781326182536
2.1340000629425	-8.2369431845903
2.1429998874664	-8.1018019467795
2.1519999504089	-7.9724536903971
2.1610000133514	-7.8486536896171
2.1700000762939	-7.7301689295844
2.1789999008179	-7.6167734222677
2.1879999637604	-7.5082520071696
2.1970000267029	-7.4043980205523
2.2060000896454	-7.3050114861710
2.2149999141693	-7.2099007016389
2.2239999771118	-7.1188786850289
2.2330000400543	-7.0317673394976
2.2420001029968	-6.9483949478169
2.2509999275208	-6.8685912008346
2.2599999904633	-6.7921947189188
2.2690000534058	-6.7190506517083
2.2780001163483	-6.6490010377464
2.2869999408722	-6.5819015422866
2.2960000038147	-6.5176053721185
2.3050000667572	-6.4559721615061
2.3139998912811	-6.3968641809598
2.3229999542236	-6.3401495977461
2.3320000171661	-6.2856954835665
2.3410000801086	-6.2333782769584
2.3499999046326	-6.1830713349118
2.3589999675751	-6.1346554390602
2.3680000305176	-6.0880117625143
2.3770000934601	-6.0430271463365
2.3859999179840	-5.9995916092075
2.3949999809265	-5.9575908995867
2.4040000438690	-5.9169242872398
2.4130001068115	-5.8774901293438
2.4219999313354	-5.8391863970940
2.4309999942780	-5.8019176869840
2.4400000572205	-5.7655923978211
2.4489998817444	-5.7301198484183
2.4579999446869	-5.6954146840981
2.4670000076294	-5.6613932514053
2.4760000705719	-5.6279778072159
2.4849998950958	-5.5950917833762
2.4939999580383	-5.5626648919196
2.5030000209808	-5.5306266958995
2.5120000839233	-5.4989150570148
2.5209999084473	-5.4674681107649
2.5299999713898	-5.4362304697843
2.5390000343323	-5.4051493437445
2.5480000972748	-5.3741753749704
2.5569999217987	-5.3432624609798
2.5659999847412	-5.3123724200358
2.5750000476837	-5.2814686618167
2.5840001106262	-5.2505176883400
2.5929999351501	-5.2194908021500
2.6019999980927	-5.1883607617931
2.6110000610352	-5.1571093499553
2.6199998855591	-5.1257170631663
2.6289999485016	-5.0941691408409
2.6380000114441	-5.0624578587193
2.6470000743866	-5.0305737454631
2.6559998989105	-4.9985132744938
2.6649999618530	-4.9662767161020
2.6740000247955	-4.9338646349943
2.6830000877380	-4.9012820053226
2.6919999122620	-4.8685362726964
2.7009999752045	-4.8356384955734
2.7100000381470	-4.8025986651982
2.7190001010895	-4.7694312140921
2.7279999256134	-4.7361537104807
2.7369999885559	-4.7027812115524
2.7460000514984	-4.6693336308121
2.7550001144409	-4.6358322474420
2.7639999389648	-4.6022984192320
2.7730000019073	-4.5687517471799
2.7820000648499	-4.5352178682722
2.7909998893738	-4.5017204555594
2.7999999523163	-4.4682838214662
2.8090000152588	-4.4349286035637
2.8180000782013	-4.4016837797735
2.8269999027252	-4.3685695047389
2.8359999656677	-4.3356117360488
2.8450000286102	-4.3028361002731
2.8540000915527	-4.2702618156858
2.8629999160767	-4.2379140530877
2.8719999790192	-4.2058129365820
2.8810000419617	-4.1739808042807
2.8900001049042	-4.1424378825388
2.8989999294281	-4.1112015370530
2.9079999923706	-4.0802911724866
2.9170000553131	-4.0497243989342
2.9260001182556	-4.0195143032519
2.9349999427795	-3.9896777707558
2.9440000057220	-3.9602286438211
2.9530000686646	-3.9311762999377
2.9619998931885	-3.9025327240765
2.9709999561310	-3.8743070813796
2.9800000190735	-3.8465075216655
2.9890000820160	-3.8191388721290
2.9979999065399	-3.7922087731198
3.0069999694824	-3.7657197151758
3.0160000324249	-3.7396734486516
3.0250000953674	-3.7140716273251
3.0339999198914	-3.6889140323881
3.0429999828339	-3.6641979002946
3.0520000457764	-3.6399216046411
3.0610001087189	-3.6160824582980
3.0699999332428	-3.5926722162002
3.0789999961853	-3.5696858725978
3.0880000591278	-3.5471157209539
3.0969998836517	-3.5249527025830
3.1059999465942	-3.5031879206294
3.1150000095367	-3.4818108948414
3.1240000724792	-3.4608086271721
3.1329998970032	-3.4401731970422
3.1419999599457	-3.4198871869171
3.1510000228882	-3.3999386651311
3.1600000858307	-3.3803131997870
3.1689999103546	-3.3609949302139
3.1779999732971	-3.3419737486809
3.1870000362396	-3.3232277393894
3.1960000991821	-3.3047429474974
3.2049999237061	-3.2865058196525
3.2139999866486	-3.2684962161644
3.2230000495911	-3.2507025582383
3.2320001125336	-3.2331039574549
3.2409999370575	-3.2156871970425
3.2500000000000	-3.1984331201603
3.2590000629425	-3.1813299895053
3.2679998874664	-3.1643598766936
3.2769999504089	-3.1475079766626
3.2860000133514	-3.1307591791253
3.2950000762939	-3.1141002508046
3.3039999008179	-3.0975180886438
3.3129999637604	-3.0809975246235
3.3220000267029	-3.0645297597086
3.3310000896454	-3.0481005948675
3.3399999141693	-3.0317006298393
3.3489999771118	-3.0153214733008
3.3580000400543	-2.9989516820716
3.3670001029968	-2.9825872825110
3.3759999275208	-2.9662170760635
3.3849999904633	-2.9498391438966
3.3940000534058	-2.9334493753490
3.4030001163483	-2.9170416707329
3.4119999408722	-2.9006150639428
3.4210000038147	-2.8841701127037
3.4300000667572	-2.8677036421100
3.4389998912811	-2.8512206634577
3.4479999542236	-2.8347206576280
3.4570000171661	-2.8182092399858
3.4660000801086	-2.8016933068224
3.4749999046326	-2.7851736395330
3.4839999675751	-2.7686619073388
3.4930000305176	-2.7521646506758
3.5020000934601	-2.7356921945139
3.5109999179840	-2.7192546076678
3.5199999809265	-2.7028642564811
3.5290000438690	-2.6865325285061
3.5380001068115	-2.6702753788573
3.5469999313354	-2.6541046737105
3.5559999942780	-2.6380370481646
3.5650000572205	-2.6220893963064
3.5739998817444	-2.6062791922498
3.5829999446869	-2.5906223867993
3.5920000076294	-2.5751390463768
3.6010000705719	-2.5598471054795
3.6099998950958	-2.5447685633378
3.6189999580383	-2.5299211441266
3.6280000209808	-2.5153272383428
3.6370000839233	-2.5010095069091
3.6459999084473	-2.4869855275667
3.6549999713898	-2.4732808583719
3.6640000343323	-2.4599155220487
3.6730000972748	-2.4469125370505
3.6819999217987	-2.4342951212310
3.6909999847412	-2.4220862695238
3.7000000476837	-2.4103071684763
3.7090001106262	-2.3989818957733
3.7179999351501	-2.3881323050189
3.7269999980927	-2.3777807898640
3.7360000610352	-2.3679513899893
3.7449998855591	-2.3586669251908
3.7539999485016	-2.3499478366324
3.7630000114441	-2.3418167635752
3.7720000743866	-2.3342948480658
3.7809998989105	-2.3274059084959
3.7899999618530	-2.3211668697163
3.7990000247955	-2.3156034573699
3.8080000877380	-2.3107334185020
3.8169999122620	-2.3065771434188
3.8259999752045	-2.3031521069646
3.8350000381470	-2.3004819258121
3.8440001010895	-2.2985821958994
3.8529999256134	-2.2974709267717
3.8619999885559	-2.2971670274768
3.8710000514984	-2.2976887747084
3.8800001144409	-2.2990484350815
3.8889999389648	-2.3012656064879
3.8980000019073	-2.3043521371551
3.9070000648499	-2.3083271347216
3.9159998893738	-2.3132033250600
3.9249999523163	-2.3189917799655
3.9340000152588	-2.3257083759416
3.9430000782013	-2.3333638241510
3.9519999027252	-2.3419682030034
3.9609999656677	-2.3515318435313
3.9700000286102	-2.3620680587325
3.9790000915527	-2.3735846190753
3.9879999160767	-2.3860875240673
3.9969999790192	-2.3995878904891
4.0060000419617	-2.4140899486540
4.0149998664856	-2.4296015106059
4.0240001678467	-2.4461270844790
4.0329999923706	-2.4636703200817
4.0419998168945	-2.4822361478779
4.0510001182556	-2.5018273252263
4.0599999427795	-2.5224440913797
4.0689997673035	-2.5440891581519
4.0780000686646	-2.5667616370258
4.0869998931885	-2.5904604960312
4.0960001945496	-2.6151844513678
4.1050000190735	-2.6409308651241
4.1139998435974	-2.6676965528571
4.1230001449585	-2.6954750132875
4.1319999694824	-2.7242627539007
4.1409997940063	-2.7540518626588
4.1500000953674	-2.7848362608046
4.1589999198914	-2.8166063392901
4.1680002212524	-2.8493535148793
4.1770000457764	-2.8830649868635
4.1859998703003	-2.9177337501778
4.1950001716614	-2.9533445637251
4.2039999961853	-2.9898822174230
4.2129998207092	-3.0273354964260
4.2220001220703	-3.0656884517499
4.2309999465942	-3.1049232652528
4.2399997711182	-3.1450236412012
4.2490000724792	-3.1859722244332
4.2579998970032	-3.2277487507693
4.2670001983643	-3.2703332626701
4.2760000228882	-3.3137043152199
4.2849998474121	-3.3578408293377
4.2940001487732	-3.4027198655321
4.3029999732971	-3.4483178418358
4.3119997978210	-3.4946096157908
4.3210000991821	-3.5415704899409
4.3299999237061	-3.5891745470542
4.3390002250671	-3.6373945875141
4.3480000495911	-3.6862030711196
4.3569998741150	-3.7355716168273
4.3660001754761	-3.7854725325600
4.3750000000000	-3.8358765055900
4.3839998245239	-3.8867514133034
4.3930001258850	-3.9380693083186
4.4019999504089	-3.9897971629597
4.4109997749329	-4.0419052429007
4.4200000762939	-4.0943576773108
4.4289999008179	-4.1471277299737
4.4380002021790	-4.2001802162099
4.4470000267029	-4.2534811360511
4.4559998512268	-4.3069995478267
4.4650001525879	-4.3607005095131
4.4739999771118	-4.4145524816735
4.4829998016357	-4.4685201681890
4.4920001029968	-4.5225710554003
4.5009999275208	-4.5766716792201
4.5100002288818	-4.6307872502144
4.5190000534058	-4.6848866169195
4.5279998779297	-4.7389348107791
4.5370001792908	-4.7928990445821
4.5460000038147	-4.8467475646760
4.5549998283386	-4.9004463803470
4.5640001296997	-4.9539639459756
4.5729999542236	-5.0072685695310
4.5819997787476	-5.0603291294905
4.5910000801086	-5.1131145033774
4.5999999046326	-5.1655919389357
4.6090002059937	-5.2177337608864
4.6180000305176	-5.2695115393041
4.6269998550415	-5.3208938720555
4.6360001564026	-5.3718522309609
4.6449999809265	-5.4223609687553
4.6539998054504	-5.4723914121188
4.6630001068115	-5.5219180144442
4.6719999313354	-5.5709135634341
4.6810002326965	-5.6193559185647
4.6900000572205	-5.6672173437477
4.6989998817444	-5.7144766225896
4.7080001831055	-5.7611101124923
4.7170000076294	-5.8070966657720
4.7259998321533	-5.8524151398163
4.7350001335144	-5.8970440568530
4.7439999580383	-5.9409635810174
4.7529997825623	-5.9841565728360
4.7620000839233	-6.0266043604547
4.7709999084473	-6.0682883773657
4.7800002098083	-6.1091960036291
4.7890000343323	-6.1493093806965
4.7979998588562	-6.1886141475161
4.8070001602173	-6.2270974164662
4.8159999847412	-6.2647451921176
4.8249998092651	-6.3015478039100
4.8340001106262	-6.3374917395652
4.8429999351501	-6.3725693768053
4.8520002365112	-6.4067700965501
4.8610000610352	-6.4400859632965
4.8699998855591	-6.4725105735231
4.8790001869202	-6.5040363526304
4.8880000114441	-6.5346583701600
4.8969998359680	-6.5643732893576
4.9060001373291	-6.5931760499101
4.9149999618530	-6.6210662207186
4.9239997863770	-6.6480413099330
4.9330000877380	-6.6741016214693
4.9419999122620	-6.6992482822203
4.9510002136230	-6.7234817778189
4.9600000381470	-6.7468077736383
4.9689998626709	-6.7692294646028
4.9780001640320	-6.7907515821972
4.9869999885559	-6.8113824432708
4.9959998130798	-6.8311287452646
5.0050001144409	-6.8500021868075
5.0139999389648	-6.8680111378469
5.0229997634888	-6.8851691167700
5.0320000648499	-6.9014898027593
5.0409998893738	-6.9169870814206
5.0500001907349	-6.9316770463798
5.0590000152588	-6.9455778128254
5.0679998397827	-6.9587093864002
5.0770001411438	-6.9710945805483
5.0859999656677	-6.9827517619168
5.0949997901917	-6.9937091466477
5.1040000915527	-7.0039891743446
5.1129999160767	-7.0136207677827
5.1220002174377	-7.0226320628815
5.1310000419617	-7.0310566382473
5.1399998664856	-7.0389216729866
5.1490001678467	-7.0462644266417
5.1579999923706	-7.0531190929643
5.1669998168945	-7.0595232047275
5.1760001182556	-7.0655163294930
5.1849999427795	-7.0711354857068
5.1939997673035	-7.0764268219143
5.2030000686646	-7.0814320285453
5.2119998931885	-7.0861940262119
5.2210001945496	-7.0907637838902
5.2300000190735	-7.0951831714450
5.2389998435974	-7.0995076443998
5.2480001449585	-7.1037822448913
5.2569999694824	-7.1080636692496
5.2659997940063	-7.1124020291111
5.2750000953674	-7.1168540438684
5.2839999198914	-7.1214725329449
5.2930002212524	-7.1263179428304
5.3020000457764	-7.1314452843671
5.3109998703003	-7.1369130768478
5.3200001716614	-7.1427837609522
5.3289999961853	-7.1491178009290
5.3379998207092	-7.1559749425196
5.3470001220703	-7.1634170549786
5.3559999465942	-7.1715095958366
5.3649997711182	-7.1803148861742
5.3740000724792	-7.1898993385050
5.3829998970032	-7.2003248696538
5.3920001983643	-7.2116581639774
5.4010000228882	-7.2239656619730
5.4099998474121	-7.2373130851898
5.4190001487732	-7.2517666936923
5.4279999732971	-7.2673949132137
5.4369997978210	-7.2842623409473
5.4460000991821	-7.3024384373083
5.4549999237061	-7.3219876565156
5.4640002250671	-7.3429817136974
5.4730000495911	-7.3654840278349
5.4819998741150	-7.3895644458730
5.4910001754761	-7.4152880442584
5.5000000000000	-7.4427248466446
5.5089998245239	-7.4719390025378
5.5180001258850	-7.5029960713684
5.5269999504089	-7.5359654112346
5.5359997749329	-7.5709098553219
5.5450000762939	-7.6078975080534
5.5539999008179	-7.6469892622697
5.5630002021790	-7.6882476691791
5.5720000267029	-7.7317385844887
5.5809998512268	-7.7775222848835
5.5900001525879	-7.8256586820664
5.5989999771118	-7.8762047671362
5.6079998016357	-7.9292201863904
5.6170001029968	-7.9847596635586
5.6259999275208	-8.0428744610387
5.6350002288818	-8.1036164917588
5.6440000534058	-8.1670346014657
5.6529998779297	-8.2331739882223
5.6620001792908	-8.3020748154202
5.6710000038147	-8.3737750818725
5.6799998283386	-8.4483102994504
5.6890001296997	-8.5257058575883
5.6979999542236	-8.6059874326477
5.7069997787476	-8.6891688053573
5.7160000801086	-8.7752627513115
5.7249999046326	-8.8642692230707
5.7340002059937	-8.9561825825865
5.7430000305176	-9.0509840396194
5.7519998550415	-9.1486463084067
5.7610001564026	-9.2491307908765
5.7699999809265	-9.3523823162667
5.7789998054504	-9.4583325969029
5.7880001068115	-9.5668942813222
5.7969999313354	-9.6779627160206
5.8060002326965	-9.7914130325697
5.8150000572205	-9.9070969392531
5.8239998817444	-10.024838569270
5.8330001831055	-10.144440014877
5.8420000076294	-10.265668624364
5.8509998321533	-10.388262137378
5.8600001335144	-10.511921054214
5.8689999580383	-10.636310819504
5.8779997825623	-10.761057290133
5.8870000839233	-10.885745221073
5.8959999084473	-11.009912158150
5.9050002098083	-11.133058801251
5.9140000343323	-11.254633298091
5.9229998588562	-11.374045692300
5.9320001602173	-11.490661172735
5.9409999847412	-11.603807444634
5.9499998092651	-11.712771992845
5.9590001106262	-11.816823034740
5.9679999351501	-11.915197831356
5.9770002365112	-12.007127199630
5.9860000610352	-12.091842217193
5.9949998855591	-12.168589963706
6.0040001869202	-12.236640047709
6.0130000114441	-12.295312868294
6.0219998359680	-12.343984871354
6.0310001373291	-12.382109691535
6.0399999618530	-12.409229231133
6.0489997863770	-12.424992683704
6.0580000877380	-12.429160113421
6.0669999122620	-12.421612783358
6.0760002136230	-12.402357509246
6.0850000381470	-12.371523866509
6.0939998626709	-12.329359454197
6.1030001640320	-12.276228532190
6.1119999885559	-12.212592407794
6.1209998130798	-12.139004830159
6.1300001144409	-12.056087648436
6.1389999389648	-11.964524954270
6.1479997634888	-11.865041802692
6.1570000648499	-11.758384743526
6.1659998893738	-11.645318708578
6.1750001907349	-11.526605265647
6.1840000152588	-11.402992026981
6.1929998397827	-11.275204757083
6.2020001411438	-11.143941785474
6.2109999656677	-11.009867428816
6.2199997901917	-10.873601862948
6.2290000915527	-10.735727532213
6.2379999160767	-10.596781814679
6.2470002174377	-10.457259425613
6.2560000419617	-10.317611234626
6.2649998664856	-10.178245509368
6.2740001678467	-10.039530980665
6.2829999923706	-9.9018013509751
6.2919998168945	-9.7653480452321
6.3010001182556	-9.6304344401441
6.3099999427795	-9.4972891276430
6.3189997673035	-9.3661160162029
6.3280000686646	-9.2370891969103
6.3369998931885	-9.1103600295170
6.3460001945496	-8.9860596372453
6.3550000190735	-8.8642992689906
6.3639998435974	-8.7451694862154
6.3730001449585	-8.6287494320164
6.3819999694824	-8.5150994135563
6.3909997940063	-8.4042722583374
