#Parameters = {h=1.5; l=55; n=21; w=50; wp=3; x=13}
#"Frequency / GHz"	"S1,1 (37) [Magnitude / dB]"
#----------------------------------------------
1.0000000000000	-0.54921678404627
1.0089999437332	-0.55089902988883
1.0180000066757	-0.55395789121236
1.0269999504089	-0.55845934364127
1.0360000133514	-0.56447436675262
1.0449999570847	-0.57207095395737
1.0540000200272	-0.58132058522055
1.0629999637604	-0.59229380934157
1.0720000267029	-0.60506115858093
1.0809999704361	-0.61969631516096
1.0900000333786	-0.63627016535336
1.0989999771118	-0.65485836986153
1.1080000400543	-0.67553279378084
1.1169999837875	-0.69836885164145
1.1260000467300	-0.72344404350044
1.1349999904633	-0.75083099161617
1.1440000534058	-0.78060806287000
1.1529999971390	-0.81285382964129
1.1619999408722	-0.84764780259294
1.1710000038147	-0.88506762261814
1.1799999475479	-0.92519436768266
1.1890000104904	-0.96811114016204
1.1979999542236	-1.0139001436229
1.2070000171661	-1.0626457914708
1.2159999608994	-1.1144338937861
1.2250000238419	-1.1693513262225
1.2339999675751	-1.2274878961197
1.2430000305176	-1.2889333922931
1.2519999742508	-1.3537796895073
1.2610000371933	-1.4221213360202
1.2699999809265	-1.4940541577843
1.2790000438690	-1.5696762398867
1.2879999876022	-1.6490891972288
1.2970000505447	-1.7323953107758
1.3059999942780	-1.8197016160563
1.3150000572205	-1.9111161599802
1.3240000009537	-2.0067497092675
1.3329999446869	-2.1067175357881
1.3420000076294	-2.2111361470153
1.3509999513626	-2.3201293747148
1.3600000143051	-2.4338209947701
1.3689999580383	-2.5523399865587
1.3780000209808	-2.6758223641989
1.3869999647141	-2.8044046954251
1.3960000276566	-2.9382287335967
1.4049999713898	-3.0774444612532
1.4140000343323	-3.2222068425579
1.4229999780655	-3.3726724645230
1.4320000410080	-3.5290085506698
1.4409999847412	-3.6913897746081
1.4500000476837	-3.8599936649314
1.4589999914169	-4.0350089846698
1.4680000543594	-4.2166300132158
1.4769999980927	-4.4050609736138
1.4859999418259	-4.6005164846789
1.4950000047684	-4.8032171980532
1.5039999485016	-5.0133979148670
1.5130000114441	-5.2313024660384
1.5219999551773	-5.4571818930070
1.5310000181198	-5.6913065552025
1.5399999618530	-5.9339502869906
1.5490000247955	-6.1854040817280
1.5579999685287	-6.4459666627310
1.5670000314713	-6.7159513976078
1.5759999752045	-6.9956775744502
1.5850000381470	-7.2854760048231
1.5939999818802	-7.5856788743304
1.6030000448227	-7.8966265834406
1.6119999885559	-8.2186477431404
1.6210000514984	-8.5520652163878
1.6299999952316	-8.8971795958405
1.6390000581741	-9.2542514819655
1.6480000019073	-9.6234890232308
1.6569999456406	-10.005015803917
1.6660000085831	-10.398838352335
1.6749999523163	-10.804798583503
1.6840000152588	-11.222511376901
1.6929999589920	-11.651281187837
1.7020000219345	-12.090004875786
1.7109999656677	-12.537033897340
1.7200000286102	-12.990013131104
1.7289999723434	-13.445690979801
1.7380000352859	-13.899703101561
1.7469999790192	-14.346358220457
1.7560000419617	-14.778459269792
1.7649999856949	-15.187244048977
1.7740000486374	-15.562494757442
1.7829999923706	-15.892988424860
1.7920000553131	-16.167300313212
1.8009999990463	-16.374987947514
1.8099999427795	-16.507963699344
1.8190000057220	-16.561763872905
1.8279999494553	-16.536304356559
1.8370000123978	-16.435902798759
1.8459999561310	-16.268516653053
1.8550000190735	-16.044499026607
1.8639999628067	-15.775218421550
1.8730000257492	-15.471864410396
1.8819999694824	-15.144634160178
1.8910000324249	-14.802287353301
1.8999999761581	-14.452005368509
1.9090000391006	-14.099469109029
1.9179999828339	-13.749027760743
1.9270000457764	-13.403907821791
1.9359999895096	-13.066440183299
1.9450000524521	-12.738240227164
1.9539999961853	-12.420378918778
1.9630000591278	-12.113514136078
1.9720000028610	-11.817992380658
1.9809999465942	-11.533933434219
1.9900000095367	-11.261289671170
1.9989999532700	-10.999894489381
2.0079998970032	-10.749499177903
2.0169999599457	-10.509802219087
2.0260000228882	-10.280460436342
2.0350000858307	-10.061114286382
2.0439999103546	-9.8513867696458
2.0529999732971	-9.6509010679116
2.0620000362396	-9.4592830574761
2.0710000991821	-9.2761608219247
2.0799999237061	-9.1011758852713
2.0889999866486	-8.9339770674935
2.0980000495911	-8.7742218866695
2.1070001125336	-8.6215818880908
2.1159999370575	-8.4757442006738
2.1250000000000	-8.3364025519709
2.1340000629425	-8.2032616579192
2.1429998874664	-8.0760429591486
2.1519999504089	-7.9544715308240
2.1610000133514	-7.8382890156851
2.1700000762939	-7.7272439460715
2.1789999008179	-7.6210939345640
2.1879999637604	-7.5196058626795
2.1970000267029	-7.4225549853248
2.2060000896454	-7.3297248251867
2.2149999141693	-7.2409042821947
2.2239999771118	-7.1558922674447
2.2330000400543	-7.0744908558116
2.2420001029968	-6.9965109765527
2.2509999275208	-6.9217693723778
2.2599999904633	-6.8500885960816
2.2690000534058	-6.7812948032955
2.2780001163483	-6.7152213466467
2.2869999408722	-6.6517079982628
2.2960000038147	-6.5905940968152
2.3050000667572	-6.5317319415670
2.3139998912811	-6.4749735549273
2.3229999542236	-6.4201762568903
2.3320000171661	-6.3672021690084
2.3410000801086	-6.3159200321888
2.3499999046326	-6.2662025706296
2.3589999675751	-6.2179255459511
2.3680000305176	-6.1709718410926
2.3770000934601	-6.1252288771438
2.3859999179840	-6.0805883497333
2.3949999809265	-6.0369463079169
2.4040000438690	-5.9942054631571
2.4130001068115	-5.9522727112625
2.4219999313354	-5.9110603822154
2.4309999942780	-5.8704844741785
2.4400000572205	-5.8304693098529
2.4489998817444	-5.7909393003156
2.4579999446869	-5.7518312847556
2.4670000076294	-5.7130807320456
2.4760000705719	-5.6746315952483
2.4849998950958	-5.6364315660697
2.4939999580383	-5.5984351089147
2.5030000209808	-5.5605971190043
2.5120000839233	-5.5228842022457
2.5209999084473	-5.4852618253797
2.5299999713898	-5.4477055096465
2.5390000343323	-5.4101895942870
2.5480000972748	-5.3726964431115
2.5569999217987	-5.3352112974704
2.5659999847412	-5.2977243732232
2.5750000476837	-5.2602271612437
2.5840001106262	-5.2227198272374
2.5929999351501	-5.1851986812930
2.6019999980927	-5.1476715388752
2.6110000610352	-5.1101401095356
2.6199998855591	-5.0726174472543
2.6289999485016	-5.0351135582040
2.6380000114441	-4.9976402774661
2.6470000743866	-4.9602147964982
2.6559998989105	-4.9228557863533
2.6649999618530	-4.8855774745860
2.6740000247955	-4.8484050335544
2.6830000877380	-4.8113572150019
2.6919999122620	-4.7744549299243
2.7009999752045	-4.7377201594233
2.7100000381470	-4.7011773450681
2.7190001010895	-4.6648486704666
2.7279999256134	-4.6287578597410
2.7369999885559	-4.5929248110696
2.7460000514984	-4.5573744518415
2.7550001144409	-4.5221272637606
2.7639999389648	-4.4872054697433
2.7730000019073	-4.4526278870048
2.7820000648499	-4.4184169626831
2.7909998893738	-4.3845867236440
2.7999999523163	-4.3511583003161
2.8090000152588	-4.3181462093554
2.8180000782013	-4.2855658843128
2.8269999027252	-4.2534310213701
2.8359999656677	-4.2217535621575
2.8450000286102	-4.1905431571083
2.8540000915527	-4.1598114333878
2.8629999160767	-4.1295653009206
2.8719999790192	-4.0998108413938
2.8810000419617	-4.0705520702470
2.8900001049042	-4.0417941654091
2.8989999294281	-4.0135362693105
2.9079999923706	-3.9857814870042
2.9170000553131	-3.9585257742092
2.9260001182556	-3.9317692091764
2.9349999427795	-3.9055061087432
2.9440000057220	-3.8797319704853
2.9530000686646	-3.8544370005577
2.9619998931885	-3.8296162939862
2.9709999561310	-3.8052596738820
2.9800000190735	-3.7813555108885
2.9890000820160	-3.7578933490104
2.9979999065399	-3.7348605034697
3.0069999694824	-3.7122413336171
3.0160000324249	-3.6900227501388
3.0250000953674	-3.6681881558839
3.0339999198914	-3.6467212906489
3.0429999828339	-3.6256057880886
3.0520000457764	-3.6048242732290
3.0610001087189	-3.5843569880522
3.0699999332428	-3.5641848619405
3.0789999961853	-3.5442936128257
3.0880000591278	-3.5246586011056
3.0969998836517	-3.5052615217565
3.1059999465942	-3.4860843070606
3.1150000095367	-3.4671071181154
3.1240000724792	-3.4483102651530
3.1329998970032	-3.4296719381036
3.1419999599457	-3.4111785094926
3.1510000228882	-3.3928061956055
3.1600000858307	-3.3745385065121
3.1689999103546	-3.3563579411381
3.1779999732971	-3.3382476752164
3.1870000362396	-3.3201901455052
3.1960000991821	-3.3021701392579
3.2049999237061	-3.2841728386801
3.2139999866486	-3.2661825385808
3.2230000495911	-3.2481877238724
3.2320001125336	-3.2301760129933
3.2409999370575	-3.2121356425825
3.2500000000000	-3.1940570104050
3.2590000629425	-3.1759294382975
3.2679998874664	-3.1577471329046
3.2769999504089	-3.1395024780977
3.2860000133514	-3.1211906525290
3.2950000762939	-3.1028060590165
3.3039999008179	-3.0843483184569
3.3129999637604	-3.0658138815210
3.3220000267029	-3.0472028846648
3.3310000896454	-3.0285155583833
3.3399999141693	-3.0097552273509
3.3489999771118	-2.9909264315501
3.3580000400543	-2.9720302386907
3.3670001029968	-2.9530758608656
3.3759999275208	-2.9340680348136
3.3849999904633	-2.9150180837677
3.3940000534058	-2.8959329706171
3.4030001163483	-2.8768237127153
3.4119999408722	-2.8577024029418
3.4210000038147	-2.8385820550913
3.4300000667572	-2.8194740894752
3.4389998912811	-2.8003958356201
3.4479999542236	-2.7813597469562
3.4570000171661	-2.7623841736242
3.4660000801086	-2.7434853291191
3.4749999046326	-2.7246824214197
3.4839999675751	-2.7059893008627
3.4930000305176	-2.6874281894919
3.5020000934601	-2.6690176374989
3.5109999179840	-2.6507783053582
3.5199999809265	-2.6327281497184
3.5290000438690	-2.6148891260818
3.5380001068115	-2.5972813585151
3.5469999313354	-2.5799270040510
3.5559999942780	-2.5628464319246
3.5650000572205	-2.5460611038857
3.5739998817444	-2.5295920587341
3.5829999446869	-2.5134607225046
3.5920000076294	-2.4976873671174
3.6010000705719	-2.4822947168210
3.6099998950958	-2.4673044071675
3.6189999580383	-2.4527361944840
3.6280000209808	-2.4386123266877
3.6370000839233	-2.4249516796697
3.6459999084473	-2.4117758750082
3.6549999713898	-2.3991046608303
3.6640000343323	-2.3869582593773
3.6730000972748	-2.3753549427448
3.6819999217987	-2.3643148780362
3.6909999847412	-2.3538569251612
3.7000000476837	-2.3439980928368
3.7090001106262	-2.3347589580962
3.7179999351501	-2.3261540212446
3.7269999980927	-2.3182005201134
3.7360000610352	-2.3109168239867
3.7449998855591	-2.3043210251529
3.7539999485016	-2.2984231877021
3.7630000114441	-2.2932421338970
3.7720000743866	-2.2887920092077
3.7809998989105	-2.2850869904931
3.7899999618530	-2.2821406059993
3.7990000247955	-2.2799673732380
3.8080000877380	-2.2785775361126
3.8169999122620	-2.2779850150469
3.8259999752045	-2.2782001667428
3.8350000381470	-2.2792357302421
3.8440001010895	-2.2811009421028
3.8529999256134	-2.2838078999668
3.8619999885559	-2.2873632907025
3.8710000514984	-2.2917803103358
3.8800001144409	-2.2970633825182
3.8889999389648	-2.3032223486995
3.8980000019073	-2.3102643634492
3.9070000648499	-2.3181981314303
3.9159998893738	-2.3270299393645
3.9249999523163	-2.3367637522006
3.9340000152588	-2.3474047589332
3.9430000782013	-2.3589620002526
3.9519999027252	-2.3714351606144
3.9609999656677	-2.3848325110857
3.9700000286102	-2.3991536008732
3.9790000915527	-2.4144032651572
3.9879999160767	-2.4305846337201
3.9969999790192	-2.4476982038801
4.0060000419617	-2.4657448933355
4.0149998664856	-2.4847273900970
4.0240001678467	-2.5046437143029
4.0329999923706	-2.5254947167497
4.0419998168945	-2.5472789743166
4.0510001182556	-2.5699961887178
4.0599999427795	-2.5936432214405
4.0689997673035	-2.6182177251396
4.0780000686646	-2.6437172717960
4.0869998931885	-2.6701373556774
4.0960001945496	-2.6974733569756
4.1050000190735	-2.7257222059189
4.1139998435974	-2.7548770484831
4.1230001449585	-2.7849317926532
4.1319999694824	-2.8158814577059
4.1409997940063	-2.8477175569664
4.1500000953674	-2.8804315457674
4.1589999198914	-2.9140164569701
4.1680002212524	-2.9484647183022
4.1770000457764	-2.9837630159629
4.1859998703003	-3.0199051683752
4.1950001716614	-3.0568774934455
4.2039999961853	-3.0946703026636
4.2129998207092	-3.1332713355633
4.2220001220703	-3.1726682744957
4.2309999465942	-3.2128475264366
4.2399997711182	-3.2537948442494
4.2490000724792	-3.2954984535856
4.2579998970032	-3.3379410102444
4.2670001983643	-3.3811091811114
4.2760000228882	-3.4249849304323
4.2849998474121	-3.4695534169230
4.2940001487732	-3.5147962225592
4.3029999732971	-3.5606958127256
4.3119997978210	-3.6072352742384
4.3210000991821	-3.6543940685124
4.3299999237061	-3.7021545338416
4.3390002250671	-3.7504952225133
4.3480000495911	-3.7993967433693
4.3569998741150	-3.8488375533344
4.3660001754761	-3.8987970981212
4.3750000000000	-3.9492526878596
4.3839998245239	-4.0001829408464
4.3930001258850	-4.0515637286692
4.4019999504089	-4.1033723965802
4.4109997749329	-4.1555855120200
4.4200000762939	-4.2081789693033
4.4289999008179	-4.2611268677188
4.4380002021790	-4.3144061441861
4.4470000267029	-4.3679886841326
4.4559998512268	-4.4218525678218
4.4650001525879	-4.4759690666610
4.4739999771118	-4.5303119247553
4.4829998016357	-4.5848520005568
4.4920001029968	-4.6395666516284
4.5009999275208	-4.6944254808446
4.5100002288818	-4.7494005058710
4.5190000534058	-4.8044640743099
4.5279998779297	-4.8595885926622
4.5370001792908	-4.9147443152793
4.5460000038147	-4.9699013352973
4.5549998283386	-5.0250326321372
4.5640001296997	-5.0801074021279
4.5729999542236	-5.1350953878269
4.5819997787476	-5.1899676533449
4.5910000801086	-5.2446934734686
4.5999999046326	-5.2992425148967
4.6090002059937	-5.3535836329160
4.6180000305176	-5.4076881334441
4.6269998550415	-5.4615225969626
4.6360001564026	-5.5150590924882
4.6449999809265	-5.5682624686494
4.6539998054504	-5.6211048539017
4.6630001068115	-5.6735533605649
4.6719999313354	-5.7255795232889
4.6810002326965	-5.7771469587292
4.6900000572205	-5.8282290493455
4.6989998817444	-5.8787909853717
4.7080001831055	-5.9288036479725
4.7170000076294	-5.9782352390070
4.7259998321533	-6.0270537921715
4.7350001335144	-6.0752308197190
4.7439999580383	-6.1227322912741
4.7529997825623	-6.1695305043033
4.7620000839233	-6.2155935452458
4.7709999084473	-6.2608939331579
4.7800002098083	-6.3053994674452
4.7890000343323	-6.3490817746134
4.7979998588562	-6.3919153281588
4.8070001602173	-6.4338694450978
4.8159999847412	-6.4749178465432
4.8249998092651	-6.5150337451516
4.8340001106262	-6.5541931335163
4.8429999351501	-6.5923714569185
4.8520002365112	-6.6295447116525
4.8610000610352	-6.6656914827237
4.8699998855591	-6.7007908807184
4.8790001869202	-6.7348219829266
4.8880000114441	-6.7677694719566
4.8969998359680	-6.7996142142658
4.9060001373291	-6.8303436253077
4.9149999618530	-6.8599433910161
4.9239997863770	-6.8884025523586
4.9330000877380	-6.9157148237849
4.9419999122620	-6.9418705782714
4.9510002136230	-6.9668672524526
4.9600000381470	-6.9907006967010
4.9689998626709	-7.0133739819005
4.9780001640320	-7.0348875944704
4.9869999885559	-7.0552489632763
4.9959998130798	-7.0744646320563
5.0050001144409	-7.0925482714513
5.0139999389648	-7.1095111988868
5.0229997634888	-7.1253716365165
5.0320000648499	-7.1401475948987
5.0409998893738	-7.1538650898729
5.0500001907349	-7.1665463198351
5.0590000152588	-7.1782218709897
5.0679998397827	-7.1889248771817
5.0770001411438	-7.1986860484592
5.0859999656677	-7.2075448072983
5.0949997901917	-7.2155418407107
5.1040000915527	-7.2227211817886
5.1129999160767	-7.2291281022123
5.1220002174377	-7.2348092029413
5.1310000419617	-7.2398184747862
5.1399998664856	-7.2442088822855
5.1490001678467	-7.2480343583407
5.1579999923706	-7.2513563992893
5.1669998168945	-7.2542344819348
5.1760001182556	-7.2567284247143
5.1849999427795	-7.2589068208341
5.1939997673035	-7.2608348865922
5.2030000686646	-7.2625779984145
5.2119998931885	-7.2642074098262
5.2210001945496	-7.2657927591770
5.2300000190735	-7.2674070385523
5.2389998435974	-7.2691213500950
5.2480001449585	-7.2710108469805
5.2569999694824	-7.2731508225767
5.2659997940063	-7.2756149248681
5.2750000953674	-7.2784792948854
5.2839999198914	-7.2818220174664
5.2930002212524	-7.2857167827602
5.3020000457764	-7.2902428592022
5.3109998703003	-7.2954767243621
5.3200001716614	-7.3014929304202
5.3289999961853	-7.3083710368734
5.3379998207092	-7.3161867725676
5.3470001220703	-7.3250142884388
5.3559999465942	-7.3349312127410
5.3649997711182	-7.3460131102052
5.3740000724792	-7.3583335570146
5.3829998970032	-7.3719686825085
5.3920001983643	-7.3869890717533
5.4010000228882	-7.4034684253585
5.4099998474121	-7.4214809621439
5.4190001487732	-7.4410963543466
5.4279999732971	-7.4623813188422
5.4369997978210	-7.4854085329205
5.4460000991821	-7.5102455167387
5.4549999237061	-7.5369568254535
5.4640002250671	-7.5656076586811
5.4730000495911	-7.5962625559292
5.4819998741150	-7.6289832498459
5.4910001754761	-7.6638311373736
5.5000000000000	-7.7008635445324
5.5089998245239	-7.7401397325234
5.5180001258850	-7.7817094655377
5.5269999504089	-7.8256301063134
5.5359997749329	-7.8719477221519
5.5450000762939	-7.9207099730266
5.5539999008179	-7.9719619272218
5.5630002021790	-8.0257437686552
5.5720000267029	-8.0820896751443
5.5809998512268	-8.1410367390195
5.5900001525879	-8.2026101986580
5.5989999771118	-8.2668336847504
5.6079998016357	-8.3337249436623
5.6170001029968	-8.4032960588229
5.6259999275208	-8.4755500578852
5.6350002288818	-8.5504893914482
5.6440000534058	-8.6280976495902
5.6529998779297	-8.7083590311443
5.6620001792908	-8.7912422487445
5.6710000038147	-8.8767054986280
5.6799998283386	-8.9646989571226
5.6890001296997	-9.0551528827017
5.6979999542236	-9.1479903883438
5.7069997787476	-9.2431100611956
5.7160000801086	-9.3404012342253
5.7249999046326	-9.4397275490749
5.7340002059937	-9.5409360686129
5.7430000305176	-9.6438484885573
5.7519998550415	-9.7482645611151
5.7610001564026	-9.8539565255023
5.7699999809265	-9.9606700873087
5.7789998054504	-10.068119891326
5.7880001068115	-10.175990971036
5.7969999313354	-10.283935269492
5.8060002326965	-10.391572574134
5.8150000572205	-10.498487758951
5.8239998817444	-10.604231368944
5.8330001831055	-10.708322661587
5.8420000076294	-10.810244897621
5.8509998321533	-10.909454701075
5.8600001335144	-11.005379433853
5.8689999580383	-11.097424714779
5.8779997825623	-11.184980387297
5.8870000839233	-11.267419994975
5.8959999084473	-11.344121140614
5.9050002098083	-11.414462054808
5.9140000343323	-11.477839078475
5.9229998588562	-11.533676886211
5.9320001602173	-11.581438099840
5.9409999847412	-11.620631818453
5.9499998092651	-11.650832419576
5.9590001106262	-11.671678075519
5.9679999351501	-11.682895430155
5.9770002365112	-11.684290342867
5.9860000610352	-11.675764440588
5.9949998855591	-11.657309352740
6.0040001869202	-11.629015397029
6.0130000114441	-11.591061822674
6.0219998359680	-11.543716004356
6.0310001373291	-11.487322336884
6.0399999618530	-11.422298895820
6.0489997863770	-11.349122665874
6.0580000877380	-11.268323666675
6.0669999122620	-11.180465006419
6.0760002136230	-11.086143965017
6.0850000381470	-10.985966537229
6.0939998626709	-10.880553102040
6.1030001640320	-10.770516789343
6.1119999885559	-10.656463367112
6.1209998130798	-10.538980193213
6.1300001144409	-10.418634102908
6.1389999389648	-10.295960769758
6.1479997634888	-10.171474988274
6.1570000648499	-10.045653886676
6.1659998893738	-9.9189414648441
6.1750001907349	-9.7917530036470
6.1840000152588	-9.6644663878467
6.1929998397827	-9.5374323854873
6.2020001411438	-9.4109636930320
6.2109999656677	-9.2853480792458
6.2199997901917	-9.1608445422037
6.2290000915527	-9.0376824107440
6.2379999160767	-8.9160672443441
6.2470002174377	-8.7961827019591
6.2560000419617	-8.6781867399859
6.2649998664856	-8.5622246984780
6.2740001678467	-8.4484161378945
6.2829999923706	-8.3368671977424
6.2919998168945	-8.2276695643679
6.3010001182556	-8.1208989585238
6.3099999427795	-8.0166208206475
6.3189997673035	-7.9148873020383
6.3280000686646	-7.8157407742433
6.3369998931885	-7.7192157341153
6.3460001945496	-7.6253367105843
6.3550000190735	-7.5341211201749
6.3639998435974	-7.4455779088152
6.3730001449585	-7.3597156239391
6.3819999694824	-7.2765293024178
6.3909997940063	-7.1960153561760
