#Parameters = {h=1.5; l=55; n=3.5; w=50; wp=3; x=13}
#"Frequency / GHz"	"S1,1 (2) [Magnitude / dB]"
#---------------------------------------------
1.0000000000000	-0.57082654972642
1.0089999437332	-0.58213494464829
1.0180000066757	-0.59411392744995
1.0269999504089	-0.60676405357235
1.0360000133514	-0.62009130193244
1.0449999570847	-0.63410007280796
1.0540000200272	-0.64879850820478
1.0629999637604	-0.66419649209667
1.0720000267029	-0.68030263625734
1.0809999704361	-0.69713325005279
1.0900000333786	-0.71470032370485
1.0989999771118	-0.73301970464344
1.1080000400543	-0.75211107735179
1.1169999837875	-0.77199310859463
1.1260000467300	-0.79268430271789
1.1349999904633	-0.81421096581574
1.1440000534058	-0.83659521939835
1.1529999971390	-0.85986485520252
1.1619999408722	-0.88404297159503
1.1710000038147	-0.90916215891336
1.1799999475479	-0.93524881229137
1.1890000104904	-0.96233509337946
1.1979999542236	-0.99045447276139
1.2070000171661	-1.0196386554271
1.2159999608994	-1.0499229308021
1.2250000238419	-1.0813435446166
1.2339999675751	-1.1139378554851
1.2430000305176	-1.1477396770118
1.2519999742508	-1.1827917969483
1.2610000371933	-1.2191305160589
1.2699999809265	-1.2567951273961
1.2790000438690	-1.2958300752853
1.2879999876022	-1.3362759061169
1.2970000505447	-1.3781711633598
1.3059999942780	-1.4215592119492
1.3150000572205	-1.4664861776298
1.3240000009537	-1.5129929774952
1.3329999446869	-1.5611221013517
1.3420000076294	-1.6109205703360
1.3509999513626	-1.6624288804403
1.3600000143051	-1.7156933708034
1.3689999580383	-1.7707593627597
1.3780000209808	-1.8276691184416
1.3869999647141	-1.8864684380231
1.3960000276566	-1.9472016369363
1.4049999713898	-2.0099124471914
1.4140000343323	-2.0746464249792
1.4229999780655	-2.1414464119747
1.4320000410080	-2.2103569469482
1.4409999847412	-2.2814212003411
1.4500000476837	-2.3546816389118
1.4589999914169	-2.4301829145487
1.4680000543594	-2.5079660291554
1.4769999980927	-2.5880740182650
1.4859999418259	-2.6705489510934
1.4950000047684	-2.7554285912668
1.5039999485016	-2.8427568460704
1.5130000114441	-2.9325719403407
1.5219999551773	-3.0249137838157
1.5310000181198	-3.1198205253288
1.5399999618530	-3.2173292936582
1.5490000247955	-3.3174772082332
1.5579999685287	-3.4203019798832
1.5670000314713	-3.5258366922583
1.5759999752045	-3.6341171423080
1.5850000381470	-3.7451773031322
1.5939999818802	-3.8590480852710
1.6030000448227	-3.9757629586960
1.6119999885559	-4.0953512174776
1.6210000514984	-4.2178426658129
1.6299999952316	-4.3432667137694
1.6390000581741	-4.4716490072445
1.6480000019073	-4.6030168158460
1.6569999456406	-4.7373942772944
1.6660000085831	-4.8748068939760
1.6749999523163	-5.0152747057011
1.6840000152588	-5.1588198938536
1.6929999589920	-5.3054619081783
1.7020000219345	-5.4552177691093
1.7109999656677	-5.6081041412696
1.7200000286102	-5.7641371873446
1.7289999723434	-5.9233296444351
1.7380000352859	-6.0856909254434
1.7469999790192	-6.2512325680866
1.7560000419617	-6.4199609929211
1.7649999856949	-6.5918813053988
1.7740000486374	-6.7669969833223
1.7829999923706	-6.9453073398514
1.7920000553131	-7.1268100241602
1.8009999990463	-7.3115014427788
1.8099999427795	-7.4993739258039
1.8190000057220	-7.6904143179197
1.8279999494553	-7.8846106855524
1.8370000123978	-8.0819428514565
1.8459999561310	-8.2823890488848
1.8550000190735	-8.4859214633905
1.8639999628067	-8.6925110036942
1.8730000257492	-8.9021187497264
1.8819999694824	-9.1147046345981
1.8910000324249	-9.3302196460531
1.8999999761581	-9.5486092005091
1.9090000391006	-9.7698122069542
1.9179999828339	-9.9937587052275
1.9270000457764	-10.220371332635
1.9359999895096	-10.449564852997
1.9450000524521	-10.681241357342
1.9539999961853	-10.915297311429
1.9630000591278	-11.151612036271
1.9720000028610	-11.390056851394
1.9809999465942	-11.630489636314
1.9900000095367	-11.872752558473
1.9989999532700	-12.116676968635
2.0079998970032	-12.362071985508
2.0169999599457	-12.608736893064
2.0260000228882	-12.856451060945
2.0350000858307	-13.104972212223
2.0439999103546	-13.354045284301
2.0529999732971	-13.603389618287
2.0620000362396	-13.852705393002
2.0710000991821	-14.101677531606
2.0799999237061	-14.349963003436
2.0889999866486	-14.597200908022
2.0980000495911	-14.843012318364
2.1070001125336	-15.086995869903
2.1159999370575	-15.328731564098
2.1250000000000	-15.567785672686
2.1340000629425	-15.803709526752
2.1429998874664	-16.036039024280
2.1519999504089	-16.264307890160
2.1610000133514	-16.488040915443
2.1700000762939	-16.706761838901
2.1789999008179	-16.920004270999
2.1879999637604	-17.127304801586
2.1970000267029	-17.328220730691
2.2060000896454	-17.522327629106
2.2149999141693	-17.709226747655
2.2239999771118	-17.888555324408
2.2330000400543	-18.059985718125
2.2420001029968	-18.223235661777
2.2509999275208	-18.378064215837
2.2599999904633	-18.524287799570
2.2690000534058	-18.661767764279
2.2780001163483	-18.790426358690
2.2869999408722	-18.910238033697
2.2960000038147	-19.021227462263
2.3050000667572	-19.123473471498
2.3139998912811	-19.217104016232
2.3229999542236	-19.302292982054
2.3320000171661	-19.379253434896
2.3410000801086	-19.448233474276
2.3499999046326	-19.509515831489
2.3589999675751	-19.563407685574
2.3680000305176	-19.610232073048
2.3770000934601	-19.650333887454
2.3859999179840	-19.684065467684
2.3949999809265	-19.711784398082
2.4040000438690	-19.733851139016
2.4130001068115	-19.750625581006
2.4219999313354	-19.762460863427
2.4309999942780	-19.769706580663
2.4400000572205	-19.772700695788
2.4489998817444	-19.771771172707
2.4579999446869	-19.767237752660
2.4670000076294	-19.759404249045
2.4760000705719	-19.748563280879
2.4849998950958	-19.734996368194
2.4939999580383	-19.718970921704
2.5030000209808	-19.700742928190
2.5120000839233	-19.680556670998
2.5209999084473	-19.658644269575
2.5299999713898	-19.635229077846
2.5390000343323	-19.610523584519
2.5480000972748	-19.584730068924
2.5569999217987	-19.558044546308
2.5659999847412	-19.530653418130
2.5750000476837	-19.502732522591
2.5840001106262	-19.474455494427
2.5929999351501	-19.445986894013
2.6019999980927	-19.417485432945
2.6110000610352	-19.389102769180
2.6199998855591	-19.360990079575
2.6289999485016	-19.333284371639
2.6380000114441	-19.306125528093
2.6470000743866	-19.279646147960
2.6559998989105	-19.253972804247
2.6649999618530	-19.229229692957
2.6740000247955	-19.205535929840
2.6830000877380	-19.183005732051
2.6919999122620	-19.161749133368
2.7009999752045	-19.141872603276
2.7100000381470	-19.123478902713
2.7190001010895	-19.106666645584
2.7279999256134	-19.091527391000
2.7369999885559	-19.078154158753
2.7460000514984	-19.066630906656
2.7550001144409	-19.057041420072
2.7639999389648	-19.049461467839
2.7730000019073	-19.043965666503
2.7820000648499	-19.040625103814
2.7909998893738	-19.039504456796
2.7999999523163	-19.040665295825
2.8090000152588	-19.044167041153
2.8180000782013	-19.050060995090
2.8269999027252	-19.058399189079
2.8359999656677	-19.069226704048
2.8450000286102	-19.082586499451
2.8540000915527	-19.098513324863
2.8629999160767	-19.117042909619
2.8719999790192	-19.138203892525
2.8810000419617	-19.162021243256
2.8900001049042	-19.188515908246
2.8989999294281	-19.217707427603
2.9079999923706	-19.249602050049
2.9170000553131	-19.284211219288
2.9260001182556	-19.321539326300
2.9349999427795	-19.361581354378
2.9440000057220	-19.404333183115
2.9530000686646	-19.449781077735
2.9619998931885	-19.497910368766
2.9709999561310	-19.548698415671
2.9800000190735	-19.602115051269
2.9890000820160	-19.658129956502
2.9979999065399	-19.716700301163
3.0069999694824	-19.777780648323
3.0160000324249	-19.841318875294
3.0250000953674	-19.907254562596
3.0339999198914	-19.975517708189
3.0429999828339	-20.046036282753
3.0520000457764	-20.118725532565
3.0610001087189	-20.193493521409
3.0699999332428	-20.270238629703
3.0789999961853	-20.348850127689
3.0880000591278	-20.429207932077
3.0969998836517	-20.511181253196
3.1059999465942	-20.594629353961
3.1150000095367	-20.679400194054
3.1240000724792	-20.765330633768
3.1329998970032	-20.852244295405
3.1419999599457	-20.939955370135
3.1510000228882	-21.028264975673
3.1600000858307	-21.116962445928
3.1689999103546	-21.205825393248
3.1779999732971	-21.294619242594
3.1870000362396	-21.383100006632
3.1960000991821	-21.471009164697
3.2049999237061	-21.558083157446
3.2139999866486	-21.644046115555
3.2230000495911	-21.728618693379
3.2320001125336	-21.811508716767
3.2409999370575	-21.892423334737
3.2500000000000	-21.971073430074
3.2590000629425	-22.047160381979
3.2679998874664	-22.120392356297
3.2769999504089	-22.190484523406
3.2860000133514	-22.257158000970
3.2950000762939	-22.320146864832
3.3039999008179	-22.379197234075
3.3129999637604	-22.434076391279
3.3220000267029	-22.484571187900
3.3310000896454	-22.530492326814
3.3399999141693	-22.571676516075
3.3489999771118	-22.607989578787
3.3580000400543	-22.639330408582
3.3670001029968	-22.665626403372
3.3759999275208	-22.686845108282
3.3849999904633	-22.702980349196
3.3940000534058	-22.714068871433
3.4030001163483	-22.720173356105
3.4119999408722	-22.721393154602
3.4210000038147	-22.717858196798
3.4300000667572	-22.709725390450
3.4389998912811	-22.697179580148
3.4479999542236	-22.680427987474
3.4570000171661	-22.659695759783
3.4660000801086	-22.635230484411
3.4749999046326	-22.607283854316
3.4839999675751	-22.576127128691
3.4930000305176	-22.542029287688
3.5020000934601	-22.505267813307
3.5109999179840	-22.466116359627
3.5199999809265	-22.424846590019
3.5290000438690	-22.381724157049
3.5380001068115	-22.337004821368
3.5469999313354	-22.290933522577
3.5559999942780	-22.243741776187
3.5650000572205	-22.195645693114
3.5739998817444	-22.146844770800
3.5829999446869	-22.097518546857
3.5920000076294	-22.047828821087
3.6010000705719	-21.997914115586
3.6099998950958	-21.947891858651
3.6189999580383	-21.897856924392
3.6280000209808	-21.847880159315
3.6370000839233	-21.798005388698
3.6459999084473	-21.748255925174
3.6549999713898	-21.698623214611
3.6640000343323	-21.649076435862
3.6730000972748	-21.599559238176
3.6819999217987	-21.549983554610
3.6909999847412	-21.500237579022
3.7000000476837	-21.450180051607
3.7090001106262	-21.399645656381
3.7179999351501	-21.348436579627
3.7269999980927	-21.296333016647
3.7360000610352	-21.243089397312
3.7449998855591	-21.188431364696
3.7539999485016	-21.132064741036
3.7630000114441	-21.073673736695
3.7720000743866	-21.012923317596
3.7809998989105	-20.949460948497
3.7899999618530	-20.882923429960
3.7990000247955	-20.812936983442
3.8080000877380	-20.739123877543
3.8169999122620	-20.661106150855
3.8259999752045	-20.578511496951
3.8350000381470	-20.490978679629
3.8440001010895	-20.398166162472
3.8529999256134	-20.299751954789
3.8619999885559	-20.195443929331
3.8710000514984	-20.084985078623
3.8800001144409	-19.968156829055
3.8889999389648	-19.844789112324
3.8980000019073	-19.714753746139
3.9070000648499	-19.577978727103
3.9159998893738	-19.434443705492
3.9249999523163	-19.284182288860
3.9340000152588	-19.127279526385
3.9430000782013	-18.963876001985
3.9519999027252	-18.794159371658
3.9609999656677	-18.618364010364
3.9700000286102	-18.436767177345
3.9790000915527	-18.249678894027
3.9879999160767	-18.057447981943
3.9969999790192	-17.860441221859
4.0060000419617	-17.659052219426
4.0149998664856	-17.453683631757
4.0240001678467	-17.244752896851
4.0329999923706	-17.032677383405
4.0419998168945	-16.817876855110
4.0510001182556	-16.600763674218
4.0599999427795	-16.381746855192
4.0689997673035	-16.161217338119
4.0780000686646	-15.939558638093
4.0869998931885	-15.717137399516
4.0960001945496	-15.494300288200
4.1050000190735	-15.271378058630
4.1139998435974	-15.048682353713
4.1230001449585	-14.826502196341
4.1319999694824	-14.605113468956
4.1409997940063	-14.384768113635
4.1500000953674	-14.165700351062
4.1589999198914	-13.948127425369
4.1680002212524	-13.732245991019
4.1770000457764	-13.518239721330
4.1859998703003	-13.306271287462
4.1950001716614	-13.096493275959
4.2039999961853	-12.889041056790
4.2129998207092	-12.684036926828
4.2220001220703	-12.481590266177
4.2309999465942	-12.281801061015
4.2399997711182	-12.084754404935
4.2490000724792	-11.890529165751
4.2579998970032	-11.699192971970
4.2670001983643	-11.510803230514
4.2760000228882	-11.325414421831
4.2849998474121	-11.143067203261
4.2940001487732	-10.963802689164
4.3029999732971	-10.787649338503
4.3119997978210	-10.614631859837
4.3210000991821	-10.444773624805
4.3299999237061	-10.278086940196
4.3390002250671	-10.114585352910
4.3480000495911	-9.9542765051983
4.3569998741150	-9.7971627719987
4.3660001754761	-9.6432475811719
4.3750000000000	-9.4925249975419
4.3839998245239	-9.3449934649523
4.3930001258850	-9.2006437412229
4.4019999504089	-9.0594677623834
4.4109997749329	-8.9214546895180
4.4200000762939	-8.7865907063140
4.4289999008179	-8.6548615375238
4.4380002021790	-8.5262497982555
4.4470000267029	-8.4007405855660
4.4559998512268	-8.2783154794826
4.4650001525879	-8.1589551119843
4.4739999771118	-8.0426385405004
4.4829998016357	-7.9293460278307
4.4920001029968	-7.8190562729914
4.5009999275208	-7.7117471642140
4.5100002288818	-7.6073984146096
4.5190000534058	-7.5059850995808
4.5279998779297	-7.4074852205726
4.5370001792908	-7.3118783212257
4.5460000038147	-7.2191367783940
4.5549998283386	-7.1292407877461
4.5640001296997	-7.0421674726854
4.5729999542236	-6.9578913084370
4.5819997787476	-6.8763905689361
4.5910000801086	-6.7976423436598
4.5999999046326	-6.7216242173611
4.6090002059937	-6.6483114281878
4.6180000305176	-6.5776844788260
4.6269998550415	-6.5097192930986
4.6360001564026	-6.4443942849803
4.6449999809265	-6.3816889130492
4.6539998054504	-6.3215791185506
4.6630001068115	-6.2640457676064
4.6719999313354	-6.2090662006658
4.6810002326965	-6.1566218568695
4.6900000572205	-6.1066898795990
4.6989998817444	-6.0592542084960
4.7080001831055	-6.0142911936377
4.7170000076294	-5.9717817313745
4.7259998321533	-5.9317083803517
4.7350001335144	-5.8940496189410
4.7439999580383	-5.8587893607613
4.7529997825623	-5.8259087602824
4.7620000839233	-5.7953871194047
4.7709999084473	-5.7672087712914
4.7800002098083	-5.7413528219342
4.7890000343323	-5.7178048250261
4.7979998588562	-5.6965447521016
4.8070001602173	-5.6775554450122
4.8159999847412	-5.6608185809740
4.8249998092651	-5.6463190389315
4.8340001106262	-5.6340352337598
4.8429999351501	-5.6239519944438
4.8520002365112	-5.6160505096827
4.8610000610352	-5.6103134701211
4.8699998855591	-5.6067222094277
4.8790001869202	-5.6052585072983
4.8880000114441	-5.6059035547147
4.8969998359680	-5.6086381067301
4.9060001373291	-5.6134422674537
4.9149999618530	-5.6202982585635
4.9239997863770	-5.6291841558811
4.9330000877380	-5.6400806056846
4.9419999122620	-5.6529665117866
4.9510002136230	-5.6678172569566
4.9600000381470	-5.6846139482634
4.9689998626709	-5.7033300854587
4.9780001640320	-5.7239447101401
4.9869999885559	-5.7464320856313
4.9959998130798	-5.7707684240814
5.0050001144409	-5.7969259875426
5.0139999389648	-5.8248776813834
5.0229997634888	-5.8545974920616
5.0320000648499	-5.8860530024628
5.0409998893738	-5.9192183543751
5.0500001907349	-5.9540616683006
5.0590000152588	-5.9905486141514
5.0679998397827	-6.0286493755812
5.0770001411438	-6.0683275464447
5.0859999656677	-6.1095507409217
5.0949997901917	-6.1522802256150
5.1040000915527	-6.1964803293556
5.1129999160767	-6.2421110154101
5.1220002174377	-6.2891355887048
5.1310000419617	-6.3375122353108
5.1399998664856	-6.3871984841153
5.1490001678467	-6.4381517272760
5.1579999923706	-6.4903286217807
5.1669998168945	-6.5436833128403
5.1760001182556	-6.5981699579398
5.1849999427795	-6.6537422992764
5.1939997673035	-6.7103517744892
5.2030000686646	-6.7679515599817
5.2119998931885	-6.8264892887611
5.2210001945496	-6.8859154946738
5.2300000190735	-6.9461784011651
5.2389998435974	-7.0072279988540
5.2480001449585	-7.0690095165088
5.2569999694824	-7.1314718874991
5.2659997940063	-7.1945590996534
5.2750000953674	-7.2582188996333
5.2839999198914	-7.3223972488670
5.2930002212524	-7.3870403571190
5.3020000457764	-7.4520912595525
5.3109998703003	-7.5174989455319
5.3200001716614	-7.5832057319021
5.3289999961853	-7.6491612274179
5.3379998207092	-7.7153088927561
5.3470001220703	-7.7815977356501
5.3559999465942	-7.8479731329540
5.3649997711182	-7.9143855340143
5.3740000724792	-7.9807816729758
5.3829998970032	-8.0471110923471
5.3920001983643	-8.1133277094360
5.4010000228882	-8.1793817213017
5.4099998474121	-8.2452268095454
5.4190001487732	-8.3108175816292
5.4279999732971	-8.3761104100539
5.4369997978210	-8.4410615406318
5.4460000991821	-8.5056328623181
5.4549999237061	-8.5697850931432
5.4640002250671	-8.6334804996135
5.4730000495911	-8.6966841826784
5.4819998741150	-8.7593620309672
5.4910001754761	-8.8214853853132
5.5000000000000	-8.8830235911730
5.5089998245239	-8.9439504396874
5.5180001258850	-9.0042393412975
5.5269999504089	-9.0638706890092
5.5359997749329	-9.1228215228167
5.5450000762939	-9.1810759349862
5.5539999008179	-9.2386157621397
5.5630002021790	-9.2954271109079
5.5720000267029	-9.3515000718621
5.5809998512268	-9.4068238186290
5.5900001525879	-9.4613898602786
5.5989999771118	-9.5151950715319
5.6079998016357	-9.5682327541291
5.6170001029968	-9.6205020517595
5.6259999275208	-9.6720057225233
5.6350002288818	-9.7227409208867
5.6440000534058	-9.7727137157266
5.6529998779297	-9.8219295005475
5.6620001792908	-9.8703913222343
5.6710000038147	-9.9181104053303
5.6799998283386	-9.9650945394189
5.6890001296997	-10.011353446591
5.6979999542236	-10.056899627632
5.7069997787476	-10.101741161339
5.7160000801086	-10.145896602616
5.7249999046326	-10.189376205236
5.7340002059937	-10.232193886586
5.7430000305176	-10.274364096212
5.7519998550415	-10.315904496264
5.7610001564026	-10.356829254689
5.7699999809265	-10.397151123664
5.7789998054504	-10.436888055108
5.7880001068115	-10.476055724336
5.7969999313354	-10.514666702435
5.8060002326965	-10.552736953937
5.8150000572205	-10.590284267112
5.8239998817444	-10.627316937403
5.8330001831055	-10.663849896737
5.8420000076294	-10.699898644808
5.8509998321533	-10.735469937083
5.8600001335144	-10.770577068773
5.8689999580383	-10.805230697882
5.8779997825623	-10.839437587098
5.8870000839233	-10.873205491856
5.8959999084473	-10.906543235082
5.9050002098083	-10.939449329908
5.9140000343323	-10.971931810700
5.9229998588562	-11.003992492881
5.9320001602173	-11.035627183126
5.9409999847412	-11.066838708323
5.9499998092651	-11.097621033601
5.9590001106262	-11.127970609980
5.9679999351501	-11.157878641934
5.9770002365112	-11.187334830952
5.9860000610352	-11.216330552044
5.9949998855591	-11.244851164328
6.0040001869202	-11.272882000710
6.0130000114441	-11.300405413196
6.0219998359680	-11.327400163598
6.0310001373291	-11.353847424163
6.0399999618530	-11.379720270936
6.0489997863770	-11.404994015246
6.0580000877380	-11.429641179444
6.0669999122620	-11.453628554238
6.0760002136230	-11.476926191857
6.0850000381470	-11.499497382642
6.0939998626709	-11.521308164551
6.1030001640320	-11.542316982540
6.1119999885559	-11.562487095011
6.1209998130798	-11.581771549747
6.1300001144409	-11.600131666163
6.1389999389648	-11.617518877498
6.1479997634888	-11.633889242127
6.1570000648499	-11.649193878289
6.1659998893738	-11.663385408387
6.1750001907349	-11.676413036470
6.1840000152588	-11.688229451226
6.1929998397827	-11.698784141315
6.2020001411438	-11.708026348865
6.2109999656677	-11.715907415401
6.2199997901917	-11.722377971544
6.2290000915527	-11.727392397964
6.2379999160767	-11.730900700752
6.2470002174377	-11.732858780441
6.2560000419617	-11.733222178928
6.2649998664856	-11.731951416595
6.2740001678467	-11.729005006120
6.2829999923706	-11.724350100220
6.2919998168945	-11.717946722156
6.3010001182556	-11.709770507149
6.3099999427795	-11.699792801281
6.3189997673035	-11.687991166622
6.3280000686646	-11.674344876390
6.3369998931885	-11.658838241172
6.3460001945496	-11.641465621022
6.3550000190735	-11.622217396768
6.3639998435974	-11.601092240586
6.3730001449585	-11.578093480192
6.3819999694824	-11.553229794936
6.3909997940063	-11.526515556799
