#Parameters = {h=1.5; l=55; n=4; w=50; wp=3; x=13}
#"Frequency / GHz"	"S1,1 (3) [Magnitude / dB]"
#---------------------------------------------
1.0000000000000	-0.48561840222351
1.0089999437332	-0.48519452682524
1.0180000066757	-0.48608320505288
1.0269999504089	-0.48831186768026
1.0360000133514	-0.49190870889798
1.0449999570847	-0.49689736453788
1.0540000200272	-0.50330426255435
1.0629999637604	-0.51115162913594
1.0720000267029	-0.52046250877807
1.0809999704361	-0.53125836724172
1.0900000333786	-0.54356085219901
1.0989999771118	-0.55739018361102
1.1080000400543	-0.57276565116826
1.1169999837875	-0.58970418277526
1.1260000467300	-0.60822667685304
1.1349999904633	-0.62835046870975
1.1440000534058	-0.65008974354017
1.1529999971390	-0.67346580936002
1.1619999408722	-0.69849069979794
1.1710000038147	-0.72518398038776
1.1799999475479	-0.75355686578679
1.1890000104904	-0.78362711736768
1.1979999542236	-0.81541085740818
1.2070000171661	-0.84892162346597
1.2159999608994	-0.88417286293217
1.2250000238419	-0.92118067445130
1.2339999675751	-0.95995775451214
1.2430000305176	-1.0005193691642
1.2519999742508	-1.0428804684601
1.2610000371933	-1.0870538130258
1.2699999809265	-1.1330529577158
1.2790000438690	-1.1808939979932
1.2879999876022	-1.2305877062154
1.2970000505447	-1.2821514041531
1.3059999942780	-1.3355989160138
1.3150000572205	-1.3909423314686
1.3240000009537	-1.4481987488441
1.3329999446869	-1.5073815748689
1.3420000076294	-1.5685032732698
1.3509999513626	-1.6315836105521
1.3600000143051	-1.6966344792863
1.3689999580383	-1.7636708212512
1.3780000209808	-1.8327096886777
1.3869999647141	-1.9037639005210
1.3960000276566	-1.9768529842979
1.4049999713898	-2.0519904369788
1.4140000343323	-2.1291935013060
1.4229999780655	-2.2084778642384
1.4320000410080	-2.2898612760129
1.4409999847412	-2.3733603810496
1.4500000476837	-2.4589918584396
1.4589999914169	-2.5467731285934
1.4680000543594	-2.6367238202649
1.4769999980927	-2.7288599066973
1.4859999418259	-2.8232010504283
1.4950000047684	-2.9197654735518
1.5039999485016	-3.0185708504272
1.5130000114441	-3.1196369324600
1.5219999551773	-3.2229830876527
1.5310000181198	-3.3286284947781
1.5399999618530	-3.4365927172902
1.5490000247955	-3.5468965203260
1.5579999685287	-3.6595569739597
1.5670000314713	-3.7745981740338
1.5759999752045	-3.8920376735445
1.5850000381470	-4.0118966973372
1.5939999818802	-4.1341973841475
1.6030000448227	-4.2589570443984
1.6119999885559	-4.3861986406471
1.6210000514984	-4.5159429759689
1.6299999952316	-4.6482090229743
1.6390000581741	-4.7830173290753
1.6480000019073	-4.9203888915933
1.6569999456406	-5.0603439842643
1.6660000085831	-5.2029006471059
1.6749999523163	-5.3480810805741
1.6840000152588	-5.4959016350510
1.6929999589920	-5.6463818710885
1.7020000219345	-5.7995402169298
1.7109999656677	-5.9553927009549
1.7200000286102	-6.1139561454896
1.7289999723434	-6.2752456400192
1.7380000352859	-6.4392762514953
1.7469999790192	-6.6060603373515
1.7560000419617	-6.7756092792776
1.7649999856949	-6.9479337965792
1.7740000486374	-7.1230409784954
1.7829999923706	-7.3009376146470
1.7920000553131	-7.4816256447200
1.8009999990463	-7.6651084511670
1.8099999427795	-7.8513827978474
1.8190000057220	-8.0404452736545
1.8279999494553	-8.2322842361102
1.8370000123978	-8.4268890422776
1.8459999561310	-8.6242410354483
1.8550000190735	-8.8243203504145
1.8639999628067	-9.0270955824834
1.8730000257492	-9.2325369679287
1.8819999694824	-9.4405994628955
1.8910000324249	-9.6512362847525
1.8999999761581	-9.8643911329328
1.9090000391006	-10.080000194092
1.9179999828339	-10.297986353443
1.9270000457764	-10.518261874314
1.9359999895096	-10.740731726345
1.9450000524521	-10.965283413794
1.9539999961853	-11.191793225004
1.9630000591278	-11.420118691257
1.9720000028610	-11.650104361475
1.9809999465942	-11.881577914462
1.9900000095367	-12.114345177396
1.9989999532700	-12.348191571261
2.0079998970032	-12.582884503868
2.0169999599457	-12.818168583019
2.0260000228882	-13.053762484217
2.0350000858307	-13.289362104564
2.0439999103546	-13.524638750968
2.0529999732971	-13.759238542166
2.0620000362396	-13.992782401434
2.0710000991821	-14.224866199963
2.0799999237061	-14.455059966740
2.0889999866486	-14.682915263439
2.0980000495911	-14.907959083515
2.1070001125336	-15.129702063539
2.1159999370575	-15.347642377480
2.1250000000000	-15.561264377711
2.1340000629425	-15.770053503087
2.1429998874664	-15.973489646184
2.1519999504089	-16.171065281532
2.1610000133514	-16.362284975617
2.1700000762939	-16.546676281548
2.1789999008179	-16.723794017296
2.1879999637604	-16.893235831146
2.1970000267029	-17.054641398748
2.2060000896454	-17.207700760195
2.2149999141693	-17.352165642588
2.2239999771118	-17.487846505869
2.2330000400543	-17.614624414242
2.2420001029968	-17.732443028515
2.2509999275208	-17.841319699312
2.2599999904633	-17.941336775502
2.2690000534058	-18.032643498010
2.2780001163483	-18.115446802465
2.2869999408722	-18.190008338338
2.2960000038147	-18.256640180527
2.3050000667572	-18.315694531246
2.3139998912811	-18.367556322667
2.3229999542236	-18.412637776954
2.3320000171661	-18.451368504306
2.3410000801086	-18.484187627742
2.3499999046326	-18.511538507151
2.3589999675751	-18.533863121044
2.3680000305176	-18.551594963443
2.3770000934601	-18.565151721597
2.3859999179840	-18.574939049424
2.3949999809265	-18.581340503273
2.4040000438690	-18.584718626356
2.4130001068115	-18.585407723091
2.4219999313354	-18.583725192329
2.4309999942780	-18.579957450240
2.4400000572205	-18.574368048463
2.4489998817444	-18.567191944009
2.4579999446869	-18.558648483675
2.4670000076294	-18.548923741561
2.4760000705719	-18.538188961054
2.4849998950958	-18.526593442018
2.4939999580383	-18.514264740743
2.5030000209808	-18.501317707717
2.5120000839233	-18.487846418672
2.5209999084473	-18.473934366098
2.5299999713898	-18.459650300388
2.5390000343323	-18.445052611971
2.5480000972748	-18.430190118294
2.5569999217987	-18.415102270550
2.5659999847412	-18.399823466844
2.5750000476837	-18.384380058519
2.5840001106262	-18.368796256546
2.5929999351501	-18.353090269161
2.6019999980927	-18.337281044627
2.6110000610352	-18.321385258844
2.6199998855591	-18.305417903281
2.6289999485016	-18.289393553335
2.6380000114441	-18.273331036032
2.6470000743866	-18.257247082158
2.6559998989105	-18.241162701867
2.6649999618530	-18.225097459318
2.6740000247955	-18.209079891776
2.6830000877380	-18.193135398929
2.6919999122620	-18.177294300721
2.7009999752045	-18.161591127821
2.7100000381470	-18.146064288639
2.7190001010895	-18.130749964753
2.7279999256134	-18.115695448665
2.7369999885559	-18.100941874831
2.7460000514984	-18.086541630705
2.7550001144409	-18.072543325149
2.7639999389648	-18.058999361507
2.7730000019073	-18.045965849887
2.7820000648499	-18.033500060793
2.7909998893738	-18.021660329401
2.7999999523163	-18.010503637693
2.8090000152588	-18.000091035999
2.8180000782013	-17.990483189817
2.8269999027252	-17.981740600881
2.8359999656677	-17.973922751064
2.8450000286102	-17.967088721579
2.8540000915527	-17.961299522154
2.8629999160767	-17.956611369368
2.8719999790192	-17.953080336336
2.8810000419617	-17.950762556776
2.8900001049042	-17.949708939027
2.8989999294281	-17.949972974179
2.9079999923706	-17.951601025418
2.9170000553131	-17.954639463956
2.9260001182556	-17.959131703202
2.9349999427795	-17.965119213385
2.9440000057220	-17.972638151405
2.9530000686646	-17.981719346477
2.9619998931885	-17.992397599470
2.9709999561310	-18.004695465541
2.9800000190735	-18.018639905484
2.9890000820160	-18.034248705109
2.9979999065399	-18.051535393082
3.0069999694824	-18.070512972335
3.0160000324249	-18.091188739484
3.0250000953674	-18.113561983676
3.0339999198914	-18.137632077334
3.0429999828339	-18.163393392339
3.0520000457764	-18.190832883736
3.0610001087189	-18.219933896434
3.0699999332428	-18.250676035040
3.0789999961853	-18.283032273121
3.0880000591278	-18.316970357240
3.0969998836517	-18.352452118113
3.1059999465942	-18.389435934117
3.1150000095367	-18.427873228962
3.1240000724792	-18.467709047816
3.1329998970032	-18.508882882075
3.1419999599457	-18.551328291080
3.1510000228882	-18.594975050599
3.1600000858307	-18.639742381264
3.1689999103546	-18.685546873133
3.1779999732971	-18.732295859680
3.1870000362396	-18.779893173815
3.1960000991821	-18.828234439550
3.2049999237061	-18.877211709744
3.2139999866486	-18.926706287902
3.2230000495911	-18.976598239689
3.2320001125336	-19.026759170791
3.2409999370575	-19.077054712047
3.2500000000000	-19.127346041722
3.2590000629425	-19.177492000883
3.2679998874664	-19.227343620597
3.2769999504089	-19.276750257806
3.2860000133514	-19.325555233730
3.2950000762939	-19.373601293394
3.3039999008179	-19.420733074265
3.3129999637604	-19.466785739872
3.3220000267029	-19.511604241216
3.3310000896454	-19.555029509278
3.3399999141693	-19.596904700906
3.3489999771118	-19.637077895377
3.3580000400543	-19.675404623101
3.3670001029968	-19.711739604188
3.3759999275208	-19.745952546032
3.3849999904633	-19.777915681145
3.3940000534058	-19.807515679733
3.4030001163483	-19.834647065202
3.4119999408722	-19.859217618012
3.4210000038147	-19.881151570781
3.4300000667572	-19.900378575638
3.4389998912811	-19.916852331368
3.4479999542236	-19.930538896585
3.4570000171661	-19.941416695371
3.4660000801086	-19.949486204674
3.4749999046326	-19.954759252686
3.4839999675751	-19.957263945979
3.4930000305176	-19.957047218570
3.5020000934601	-19.954167975493
3.5109999179840	-19.948700619483
3.5199999809265	-19.940730887134
3.5290000438690	-19.930360561307
3.5380001068115	-19.917697286627
3.5469999313354	-19.902863254172
3.5559999942780	-19.885985151938
3.5650000572205	-19.867198040153
3.5739998817444	-19.846640816810
3.5829999446869	-19.824457999854
3.5920000076294	-19.800792852801
3.6010000705719	-19.775790367983
3.6099998950958	-19.749594627814
3.6189999580383	-19.722343425782
3.6280000209808	-19.694175857294
3.6370000839233	-19.665219103175
3.6459999084473	-19.635594925421
3.6549999713898	-19.605418774112
3.6640000343323	-19.574790796204
3.6730000972748	-19.543804712133
3.6819999217987	-19.512535795117
3.6909999847412	-19.481051812500
3.7000000476837	-19.449401843015
3.7090001106262	-19.417619992804
3.7179999351501	-19.385724028305
3.7269999980927	-19.353714349973
3.7360000610352	-19.321569041608
3.7449998855591	-19.289252079769
3.7539999485016	-19.256705106500
3.7630000114441	-19.223852207819
3.7720000743866	-19.190589873569
3.7809998989105	-19.156799793926
3.7899999618530	-19.122339853704
3.7990000247955	-19.087049248672
3.8080000877380	-19.050740722938
3.8169999122620	-19.013211792620
3.8259999752045	-18.974237084054
3.8350000381470	-18.933572616595
3.8440001010895	-18.890960534865
3.8529999256134	-18.846122274575
3.8619999885559	-18.798767732224
3.8710000514984	-18.748598139680
3.8800001144409	-18.695303632580
3.8889999389648	-18.638570117762
3.8980000019073	-18.578085385562
3.9070000648499	-18.513535123866
3.9159998893738	-18.444617201892
3.9249999523163	-18.371039302859
3.9340000152588	-18.292527694534
3.9430000782013	-18.208826027598
3.9519999027252	-18.119709130068
3.9609999656677	-18.024976265482
3.9700000286102	-17.924467215042
3.9790000915527	-17.818054500815
3.9879999160767	-17.705653748021
3.9969999790192	-17.587221614635
4.0060000419617	-17.462760200625
4.0149998664856	-17.332314470215
4.0240001678467	-17.195974479662
4.0329999923706	-17.053870571410
4.0419998168945	-16.906175702023
4.0510001182556	-16.753100037746
4.0599999427795	-16.594890616584
4.0689997673035	-16.431817740040
4.0780000686646	-16.264187000308
4.0869998931885	-16.092319947566
4.0960001945496	-15.916558679239
4.1050000190735	-15.737256844714
4.1139998435974	-15.554776791354
4.1230001449585	-15.369485872310
4.1319999694824	-15.181752935189
4.1409997940063	-14.991942760426
4.1500000953674	-14.800414110451
4.1589999198914	-14.607521764699
4.1680002212524	-14.413604214711
4.1770000457764	-14.218990747390
4.1859998703003	-14.023998112523
4.1950001716614	-13.828926281166
4.2039999961853	-13.634056624538
4.2129998207092	-13.439660380405
4.2220001220703	-13.245989688224
4.2309999465942	-13.053278189427
4.2399997711182	-12.861746790842
4.2490000724792	-12.671598648315
4.2579998970032	-12.483022739837
4.2670001983643	-12.296190989616
4.2760000228882	-12.111262040160
4.2849998474121	-11.928381783793
4.2940001487732	-11.747679993016
4.3029999732971	-11.569279477038
4.3119997978210	-11.393287314641
4.3210000991821	-11.219802398853
4.3299999237061	-11.048907008039
4.3390002250671	-10.880682467896
4.3480000495911	-10.715197637984
4.3569998741150	-10.552512345150
4.3660001754761	-10.392677465104
4.3750000000000	-10.235740526414
4.3839998245239	-10.081740086970
4.3930001258850	-9.9307119301529
4.4019999504089	-9.7826798577966
4.4109997749329	-9.6376707495827
4.4200000762939	-9.4956989937656
4.4289999008179	-9.3567797708025
4.4380002021790	-9.2209251045302
4.4470000267029	-9.0881382195868
4.4559998512268	-8.9584253620759
4.4650001525879	-8.8317827510696
4.4739999771118	-8.7082122144537
4.4829998016357	-8.5877084744240
4.4920001029968	-8.4702615254302
4.5009999275208	-8.3558642455446
4.5100002288818	-8.2445075631124
4.5190000534058	-8.1361776861025
4.5279998779297	-8.0308604986211
4.5370001792908	-7.9285421704036
4.5460000038147	-7.8292058606744
4.5549998283386	-7.7328355627093
4.5640001296997	-7.6394133422010
4.5729999542236	-7.5489200105925
4.5819997787476	-7.4613374918237
4.5910000801086	-7.3766449251726
4.5999999046326	-7.2948234707984
4.6090002059937	-7.2158512444305
4.6180000305176	-7.1397071902534
4.6269998550415	-7.0663703834789
4.6360001564026	-6.9958218183029
4.6449999809265	-6.9280359908393
4.6539998054504	-6.8629914365392
4.6630001068115	-6.8006700907680
4.6719999313354	-6.7410460671481
4.6810002326965	-6.6840987199708
4.6900000572205	-6.6298077627912
4.6989998817444	-6.5781465909607
4.7080001831055	-6.5290984691435
4.7170000076294	-6.4826369960226
4.7259998321533	-6.4387410541776
4.7350001335144	-6.3973901138942
4.7439999580383	-6.3585614040831
4.7529997825623	-6.3222306921912
4.7620000839233	-6.2883782942199
4.7709999084473	-6.2569802809543
4.7800002098083	-6.2280143921198
4.7890000343323	-6.2014587374008
4.7979998588562	-6.1772899873917
4.8070001602173	-6.1554857925828
4.8159999847412	-6.1360226227090
4.8249998092651	-6.1188784374374
4.8340001106262	-6.1040286388941
4.8429999351501	-6.0914486383474
4.8520002365112	-6.0811171099044
4.8610000610352	-6.0730063188182
4.8699998855591	-6.0670935957654
4.8790001869202	-6.0633541256180
4.8880000114441	-6.0617594684359
4.8969998359680	-6.0622857499335
4.9060001373291	-6.0649058253768
4.9149999618530	-6.0695913953585
4.9239997863770	-6.0763145552900
4.9330000877380	-6.0850476005551
4.9419999122620	-6.0957603720473
4.9510002136230	-6.1084225202686
4.9600000381470	-6.1230029233891
4.9689998626709	-6.1394703745708
4.9780001640320	-6.1577921893329
4.9869999885559	-6.1779343473951
4.9959998130798	-6.1998632640369
5.0050001144409	-6.2235434027917
5.0139999389648	-6.2489373829030
5.0229997634888	-6.2760098368375
5.0320000648499	-6.3047198476157
5.0409998893738	-6.3350314298239
5.0500001907349	-6.3669012656756
5.0590000152588	-6.4002884997178
5.0679998397827	-6.4351529186680
5.0770001411438	-6.4714495294044
5.0859999656677	-6.5091331546320
5.0949997901917	-6.5481602036325
5.1040000915527	-6.5884823531326
5.1129999160767	-6.6300539588275
5.1220002174377	-6.6728258052224
5.1310000419617	-6.7167502172687
5.1399998664856	-6.7617742848780
5.1490001678467	-6.8078492987341
5.1579999923706	-6.8549224881297
5.1669998168945	-6.9029422233898
5.1760001182556	-6.9518550440741
5.1849999427795	-7.0016065568446
5.1939997673035	-7.0521435707262
5.2030000686646	-7.1034122484933
5.2119998931885	-7.1553559969792
5.2210001945496	-7.2079185951949
5.2300000190735	-7.2610468809347
5.2389998435974	-7.3146836684859
5.2480001449585	-7.3687748743412
5.2569999694824	-7.4232633999790
5.2659997940063	-7.4780949373765
5.2750000953674	-7.5332140792845
5.2839999198914	-7.5885652541313
5.2930002212524	-7.6440959495139
5.3020000457764	-7.6997522483135
5.3109998703003	-7.7554816511052
5.3200001716614	-7.8112308674748
5.3289999961853	-7.8669513902785
5.3379998207092	-7.9225927679164
5.3470001220703	-7.9781062683704
5.3559999465942	-8.0334456893499
5.3649997711182	-8.0885634435738
5.3740000724792	-8.1434185408198
5.3829998970032	-8.1979653391946
5.3920001983643	-8.2521671192676
5.4010000228882	-8.3059822041717
5.4099998474121	-8.3593755049435
5.4190001487732	-8.4123093257284
5.4279999732971	-8.4647556903859
5.4369997978210	-8.5166811595661
5.4460000991821	-8.5680583210769
5.4549999237061	-8.6188614816621
5.4640002250671	-8.6690686269075
5.4730000495911	-8.7186546830123
5.4819998741150	-8.7676058433196
5.4910001754761	-8.8159017973460
5.5000000000000	-8.8635318664598
5.5089998245239	-8.9104825815853
5.5180001258850	-8.9567466052566
5.5269999504089	-9.0023152456950
5.5359997749329	-9.0471875641256
5.5450000762939	-9.0913613500172
5.5539999008179	-9.1348339879948
5.5630002021790	-9.1776112061029
5.5720000267029	-9.2196986660177
5.5809998512268	-9.2611015565465
5.5900001525879	-9.3018300530488
5.5989999771118	-9.3418969133169
5.6079998016357	-9.3813127001898
5.6170001029968	-9.4200943804992
5.6259999275208	-9.4582576469743
5.6350002288818	-9.4958223529982
5.6440000534058	-9.5328058406566
5.6529998779297	-9.5692318723875
5.6620001792908	-9.6051208769203
5.6710000038147	-9.6404983054859
5.6799998283386	-9.6753864900571
5.6890001296997	-9.7098124872010
5.6979999542236	-9.7438028334414
5.7069997787476	-9.7773832359747
5.7160000801086	-9.8105790999305
5.7249999046326	-9.8434225568474
5.7340002059937	-9.8759370391331
5.7430000305176	-9.9081534964780
5.7519998550415	-9.9400983543893
5.7610001564026	-9.9717986922010
5.7699999809265	-10.003281293677
5.7789998054504	-10.034575163359
5.7880001068115	-10.065703385327
5.7969999313354	-10.096693686727
5.8060002326965	-10.127567756173
5.8150000572205	-10.158352295114
5.8239998817444	-10.189065048385
5.8330001831055	-10.219726883256
5.8420000076294	-10.250360791968
5.8509998321533	-10.280980959767
5.8600001335144	-10.311603007470
5.8689999580383	-10.342243193300
5.8779997825623	-10.372910712609
5.8870000839233	-10.403614729918
5.8959999084473	-10.434363388281
5.9050002098083	-10.465163006088
5.9140000343323	-10.496012210584
5.9229998588562	-10.526913309965
5.9320001602173	-10.557861379980
5.9409999847412	-10.588849349930
5.9499998092651	-10.619870743327
5.9590001106262	-10.650909643469
5.9679999351501	-10.681951079955
5.9770002365112	-10.712975811628
5.9860000610352	-10.743963248995
5.9949998855591	-10.774885351732
6.0040001869202	-10.805712565400
6.0130000114441	-10.836412848470
6.0219998359680	-10.866948297222
6.0310001373291	-10.897278658569
6.0399999618530	-10.927358805275
6.0489997863770	-10.957143987258
6.0580000877380	-10.986579631745
6.0669999122620	-11.015612653973
6.0760002136230	-11.044185386981
6.0850000381470	-11.072236021164
6.0939998626709	-11.099696761100
6.1030001640320	-11.126503845012
6.1119999885559	-11.152587830873
6.1209998130798	-11.177873013765
6.1300001144409	-11.202286096800
6.1389999389648	-11.225748669470
6.1479997634888	-11.248183726044
6.1570000648499	-11.269509498071
6.1659998893738	-11.289647672343
6.1750001907349	-11.308516596496
6.1840000152588	-11.326033607321
6.1929998397827	-11.342119306001
6.2020001411438	-11.356696528278
6.2109999656677	-11.369683966848
6.2199997901917	-11.381007616912
6.2290000915527	-11.390594502358
6.2379999160767	-11.398372844059
6.2470002174377	-11.404279728548
6.2560000419617	-11.408249947374
6.2649998664856	-11.410227342341
6.2740001678467	-11.410159347263
6.2829999923706	-11.408002294801
6.2919998168945	-11.403713777308
6.3010001182556	-11.397260352888
6.3099999427795	-11.388614705808
6.3189997673035	-11.377757493964
6.3280000686646	-11.364676607369
6.3369998931885	-11.349365486845
6.3460001945496	-11.331828432804
6.3550000190735	-11.312076706016
6.3639998435974	-11.290122106082
6.3730001449585	-11.265996320852
6.3819999694824	-11.239725300630
6.3909997940063	-11.211352261362
