#Parameters = {h=1.5; l=55; n=5; w=50; wp=3; x=13}
#"Frequency / GHz"	"S1,1 (5) [Magnitude / dB]"
#---------------------------------------------
1.0000000000000	-0.59645871249692
1.0089999437332	-0.60708115072499
1.0180000066757	-0.61836476476806
1.0269999504089	-0.63031795164852
1.0360000133514	-0.64295371295156
1.0449999570847	-0.65628467173421
1.0540000200272	-0.67032723502793
1.0629999637604	-0.68509802376174
1.0720000267029	-0.70061622075414
1.0809999704361	-0.71690344416156
1.0900000333786	-0.73398332131460
1.0989999771118	-0.75187924805552
1.1080000400543	-0.77061951014107
1.1169999837875	-0.79023158615386
1.1260000467300	-0.81074484480105
1.1349999904633	-0.83219002790645
1.1440000534058	-0.85460294774233
1.1529999971390	-0.87801454758774
1.1619999408722	-0.90246320344388
1.1710000038147	-0.92798451909593
1.1799999475479	-0.95461616678519
1.1890000104904	-0.98240062187163
1.1979999542236	-1.0113743902552
1.2070000171661	-1.0415824982870
1.2159999608994	-1.0730665170099
1.2250000238419	-1.1058694596119
1.2339999675751	-1.1400377851951
1.2430000305176	-1.1756151302763
1.2519999742508	-1.2126477344823
1.2610000371933	-1.2511840954871
1.2699999809265	-1.2912674460395
1.2790000438690	-1.3329514227542
1.2879999876022	-1.3762788398499
1.2970000505447	-1.4213018681448
1.3059999942780	-1.4680676854639
1.3150000572205	-1.5166284524897
1.3240000009537	-1.5670312817949
1.3329999446869	-1.6193283333917
1.3420000076294	-1.6735683517011
1.3509999513626	-1.7298014009234
1.3600000143051	-1.7880794041420
1.3689999580383	-1.8484510805283
1.3780000209808	-1.9109687166348
1.3869999647141	-1.9756798644911
1.3960000276566	-2.0426364608691
1.4049999713898	-2.1118890666674
1.4140000343323	-2.1834849782953
1.4229999780655	-2.2574761048210
1.4320000410080	-2.3339119756070
1.4409999847412	-2.4128398992744
1.4500000476837	-2.4943085236349
1.4589999914169	-2.5783655443658
1.4680000543594	-2.6650612129764
1.4769999980927	-2.7544400792511
1.4859999418259	-2.8465505636127
1.4950000047684	-2.9414381718646
1.5039999485016	-3.0391478127090
1.5130000114441	-3.1397259702287
1.5219999551773	-3.2432136922402
1.5310000181198	-3.3496583111550
1.5399999618530	-3.4590998833608
1.5490000247955	-3.5715826080275
1.5579999685287	-3.6871447548825
1.5670000314713	-3.8058292541663
1.5759999752045	-3.9276724443170
1.5850000381470	-4.0527145293448
1.5939999818802	-4.1809924550190
1.6030000448227	-4.3125420047694
1.6119999885559	-4.4473984073508
1.6210000514984	-4.5855951316076
1.6299999952316	-4.7271648421232
1.6390000581741	-4.8721388498594
1.6480000019073	-5.0205446167555
1.6569999456406	-5.1724139044523
1.6660000085831	-5.3277686983063
1.6749999523163	-5.4866382263672
1.6840000152588	-5.6490397718075
1.6929999589920	-5.8149977743338
1.7020000219345	-5.9845291434216
1.7109999656677	-6.1576499439035
1.7200000286102	-6.3343728506769
1.7289999723434	-6.5147077283557
1.7380000352859	-6.6986618376635
1.7469999790192	-6.8862379700642
1.7560000419617	-7.0774371801368
1.7649999856949	-7.2722519646450
1.7740000486374	-7.4706742000876
1.7829999923706	-7.6726902129962
1.7920000553131	-7.8782778965267
1.8009999990463	-8.0874106182481
1.8099999427795	-8.3000536203139
1.8190000057220	-8.5161660122344
1.8279999494553	-8.7356975415154
1.8370000123978	-8.9585871387368
1.8459999561310	-9.1847625735633
1.8550000190735	-9.4141438431763
1.8639999628067	-9.6466309186652
1.8730000257492	-9.8821166991423
1.8819999694824	-10.120471979583
1.8910000324249	-10.361553828316
1.8999999761581	-10.605195641115
1.9090000391006	-10.851214677773
1.9179999828339	-11.099402848349
1.9270000457764	-11.349523769857
1.9359999895096	-11.601319349415
1.9450000524521	-11.854496848242
1.9539999961853	-12.108734412832
1.9630000591278	-12.363674424587
1.9720000028610	-12.618925931948
1.9809999465942	-12.874058284109
1.9900000095367	-13.128603654304
1.9989999532700	-13.382052143046
2.0079998970032	-13.633857610868
2.0169999599457	-13.883429675162
2.0260000228882	-14.130144525818
2.0350000858307	-14.373337808152
2.0439999103546	-14.612318081944
2.0529999732971	-14.846363411468
2.0620000362396	-15.074732863029
2.0710000991821	-15.296675589633
2.0799999237061	-15.511435449192
2.0889999866486	-15.718267760480
2.0980000495911	-15.916449955771
2.1070001125336	-16.105292602761
2.1159999370575	-16.284155057562
2.1250000000000	-16.452462974572
2.1340000629425	-16.609712160563
2.1429998874664	-16.755489256637
2.1519999504089	-16.889476853410
2.1610000133514	-17.011463036950
2.1700000762939	-17.121343014363
2.1789999008179	-17.219123967934
2.1879999637604	-17.304921237747
2.1970000267029	-17.378949550040
2.2060000896454	-17.441523678648
2.2149999141693	-17.493044041235
2.2239999771118	-17.533979478176
2.2330000400543	-17.564863571700
2.2420001029968	-17.586272887458
2.2509999275208	-17.598818488090
2.2599999904633	-17.603132904287
2.2690000534058	-17.599854124997
2.2780001163483	-17.589618704971
2.2869999408722	-17.573051645302
2.2960000038147	-17.550756152767
2.3050000667572	-17.523314608592
2.3139998912811	-17.491271411235
2.3229999542236	-17.455145749378
2.3320000171661	-17.415418295016
2.3410000801086	-17.372529711583
2.3499999046326	-17.326889358645
2.3589999675751	-17.278870708711
2.3680000305176	-17.228810823505
2.3770000934601	-17.177014180152
2.3859999179840	-17.123757052891
2.3949999809265	-17.069286885233
2.4040000438690	-17.013820208979
2.4130001068115	-16.957557526692
2.4219999313354	-16.900674184459
2.4309999942780	-16.843323898816
2.4400000572205	-16.785649342471
2.4489998817444	-16.727773868102
2.4579999446869	-16.669808737050
2.4670000076294	-16.611855199753
2.4760000705719	-16.554002983882
2.4849998950958	-16.496337178769
2.4939999580383	-16.438931243383
2.5030000209808	-16.381856098301
2.5120000839233	-16.325177476714
2.5209999084473	-16.268956065644
2.5299999713898	-16.213248921530
2.5390000343323	-16.158116213398
2.5480000972748	-16.103607917370
2.5569999217987	-16.049778023482
2.5659999847412	-15.996677919103
2.5750000476837	-15.944356924109
2.5840001106262	-15.892864753237
2.5929999351501	-15.842251938820
2.6019999980927	-15.792566356523
2.6110000610352	-15.743857059447
2.6199998855591	-15.696167802901
2.6289999485016	-15.649549685569
2.6380000114441	-15.604047206634
2.6470000743866	-15.559706515361
2.6559998989105	-15.516574260064
2.6649999618530	-15.474689785809
2.6740000247955	-15.434100905935
2.6830000877380	-15.394848031973
2.6919999122620	-15.356969965363
2.7009999752045	-15.320507411217
2.7100000381470	-15.285495733944
2.7190001010895	-15.251972555215
2.7279999256134	-15.219969017936
2.7369999885559	-15.189518302881
2.7460000514984	-15.160650023455
2.7550001144409	-15.133391340100
2.7639999389648	-15.107764773957
2.7730000019073	-15.083795313588
2.7820000648499	-15.061502617873
2.7909998893738	-15.040901657582
2.7999999523163	-15.022004189630
2.8090000152588	-15.004825481588
2.8180000782013	-14.989372795322
2.8269999027252	-14.975651219145
2.8359999656677	-14.963661815428
2.8450000286102	-14.953404319452
2.8540000915527	-14.944873409597
2.8629999160767	-14.938062204495
2.8719999790192	-14.932958549735
2.8810000419617	-14.929548220447
2.8900001049042	-14.927814968632
2.8989999294281	-14.927733930245
2.9079999923706	-14.929281546300
2.9170000553131	-14.932430925795
2.9260001182556	-14.937145610942
2.9349999427795	-14.943391516931
2.9440000057220	-14.951129844536
2.9530000686646	-14.960313453520
2.9619998931885	-14.970898218637
2.9709999561310	-14.982831637990
2.9800000190735	-14.996057612854
2.9890000820160	-15.010520154824
2.9979999065399	-15.026152576186
3.0069999694824	-15.042891702416
3.0160000324249	-15.060665706198
3.0250000953674	-15.079401578174
3.0339999198914	-15.099020088204
3.0429999828339	-15.119442780316
3.0520000457764	-15.140582386788
3.0610001087189	-15.162354880944
3.0699999332428	-15.184665823226
3.0789999961853	-15.207420929260
3.0880000591278	-15.230528597123
3.0969998836517	-15.253885936836
3.1059999465942	-15.277390881672
3.1150000095367	-15.300943945167
3.1240000724792	-15.324438772556
3.1329998970032	-15.347768333145
3.1419999599457	-15.370827792336
3.1510000228882	-15.393507318605
3.1600000858307	-15.415703287611
3.1689999103546	-15.437307708182
3.1779999732971	-15.458216618716
3.1870000362396	-15.478325007814
3.1960000991821	-15.497533051793
3.2049999237061	-15.515741538079
3.2139999866486	-15.532857337564
3.2230000495911	-15.548788035941
3.2320001125336	-15.563449443839
3.2409999370575	-15.576760910131
3.2500000000000	-15.588647111526
3.2590000629425	-15.599039987854
3.2679998874664	-15.607877709626
3.2769999504089	-15.615109124705
3.2860000133514	-15.620686488119
3.2950000762939	-15.624572623186
3.3039999008179	-15.626740517756
3.3129999637604	-15.627169322881
3.3220000267029	-15.625848080390
3.3310000896454	-15.622776631426
3.3399999141693	-15.617961480020
3.3489999771118	-15.611421683411
3.3580000400543	-15.603182523978
3.3670001029968	-15.593279004487
3.3759999275208	-15.581757289684
3.3849999904633	-15.568667420094
3.3940000534058	-15.554069708989
3.4030001163483	-15.538035296882
3.4119999408722	-15.520635669198
3.4210000038147	-15.501954072320
3.4300000667572	-15.482076855685
3.4389998912811	-15.461098742490
3.4479999542236	-15.439112583448
3.4570000171661	-15.416222589658
3.4660000801086	-15.392533715645
3.4749999046326	-15.368150652576
3.4839999675751	-15.343184266115
3.4930000305176	-15.317741437230
3.5020000934601	-15.291937765885
3.5109999179840	-15.265881603661
3.5199999809265	-15.239681041682
3.5290000438690	-15.213448971031
3.5380001068115	-15.187290432571
3.5469999313354	-15.161311266223
3.5559999942780	-15.135613399202
3.5650000572205	-15.110296872421
3.5739998817444	-15.085456602298
3.5829999446869	-15.061184331412
3.5920000076294	-15.037565070009
3.6010000705719	-15.014684424707
3.6099998950958	-14.992615761613
3.6189999580383	-14.971431152129
3.6280000209808	-14.951197694286
3.6370000839233	-14.931972771547
3.6459999084473	-14.913809478820
3.6549999713898	-14.896752505372
3.6640000343323	-14.880842296780
3.6730000972748	-14.866106809081
3.6819999217987	-14.852569990250
3.6909999847412	-14.840248523641
3.7000000476837	-14.829145413223
3.7090001106262	-14.819260376410
3.7179999351501	-14.810581719237
3.7269999980927	-14.803088119604
3.7360000610352	-14.796747359869
3.7449998855591	-14.791519604453
3.7539999485016	-14.787352231140
3.7630000114441	-14.784181799909
3.7720000743866	-14.781934808327
3.7809998989105	-14.780525865948
3.7899999618530	-14.779856979680
3.7990000247955	-14.779816928618
3.8080000877380	-14.780285516252
3.8169999122620	-14.781126992719
3.8259999752045	-14.782193585293
3.8350000381470	-14.783324404725
3.8440001010895	-14.784347358586
3.8529999256134	-14.785075528878
3.8619999885559	-14.785313624773
3.8710000514984	-14.784848482765
3.8800001144409	-14.783463950052
3.8889999389648	-14.780927068424
3.8980000019073	-14.776997908457
3.9070000648499	-14.771429535005
3.9159998893738	-14.763968354342
3.9249999523163	-14.754354368996
3.9340000152588	-14.742328241733
3.9430000782013	-14.727628239973
3.9519999027252	-14.709994894426
3.9609999656677	-14.689171828252
3.9700000286102	-14.664914150996
3.9790000915527	-14.636981526545
3.9879999160767	-14.605152027373
3.9969999790192	-14.569216675484
4.0060000419617	-14.528987459907
4.0149998664856	-14.484294145604
4.0240001678467	-14.434994791006
4.0329999923706	-14.380972944465
4.0419998168945	-14.322138714202
4.0510001182556	-14.258432638193
4.0599999427795	-14.189826445721
4.0689997673035	-14.116321756484
4.0780000686646	-14.037954944233
4.0869998931885	-13.954787516230
4.0960001945496	-13.866917296664
4.1050000190735	-13.774466247778
4.1139998435974	-13.677581723370
4.1230001449585	-13.576443680463
4.1319999694824	-13.471247699026
4.1409997940063	-13.362207069207
4.1500000953674	-13.249557439345
4.1589999198914	-13.133547542024
4.1680002212524	-13.014432976163
4.1770000457764	-12.892482910103
4.1859998703003	-12.767969241633
4.1950001716614	-12.641164942554
4.2039999961853	-12.512346465837
4.2129998207092	-12.381786409456
4.2220001220703	-12.249759031938
4.2309999465942	-12.116525058898
4.2399997711182	-11.982341860693
4.2490000724792	-11.847462408815
4.2579998970032	-11.712125509440
4.2670001983643	-11.576559720926
4.2760000228882	-11.440989093386
4.2849998474121	-11.305619089484
4.2940001487732	-11.170649780350
4.3029999732971	-11.036265914930
4.3119997978210	-10.902642547380
4.3210000991821	-10.769942665829
4.3299999237061	-10.638320560302
4.3390002250671	-10.507915678141
4.3480000495911	-10.378862315953
4.3569998741150	-10.251278927955
4.3660001754761	-10.125275966430
4.3750000000000	-10.000955794972
4.3839998245239	-9.8784151818934
4.3930001258850	-9.7577347263503
4.4019999504089	-9.6389934892614
4.4109997749329	-9.5222605795838
4.4200000762939	-9.4075965193476
4.4289999008179	-9.2950586605515
4.4380002021790	-9.1846967201036
4.4470000267029	-9.0765548371238
4.4559998512268	-8.9706710200515
4.4650001525879	-8.8670798516570
4.4739999771118	-8.7658081033644
4.4829998016357	-8.6668831939534
4.4920001029968	-8.5703252040505
4.5009999275208	-8.4761515522303
4.5100002288818	-8.3843725502599
4.5190000534058	-8.2950043083336
4.5279998779297	-8.2080511265325
4.5370001792908	-8.1235194901212
4.5460000038147	-8.0414109673184
4.5549998283386	-7.9617268609896
4.5640001296997	-7.8844666992751
4.5729999542236	-7.8096253520714
4.5819997787476	-7.7372004581637
4.5910000801086	-7.6671823590355
4.5999999046326	-7.5995627099820
4.6090002059937	-7.5343345933768
4.6180000305176	-7.4714855356161
4.6269998550415	-7.4110056017814
4.6360001564026	-7.3528817572144
4.6449999809265	-7.2970990526325
4.6539998054504	-7.2436429974781
4.6630001068115	-7.1924985960783
4.6719999313354	-7.1436512822078
4.6810002326965	-7.0970804661015
4.6900000572205	-7.0527718483886
4.6989998817444	-7.0107064049709
4.7080001831055	-6.9708656097717
4.7170000076294	-6.9332296306849
4.7259998321533	-6.8977778158715
4.7350001335144	-6.8644919589621
4.7439999580383	-6.8333491379147
4.7529997825623	-6.8043295056057
4.7620000839233	-6.7774095409490
4.7709999084473	-6.7525683031159
4.7800002098083	-6.7297812627360
4.7890000343323	-6.7090254447490
4.7979998588562	-6.6902794978202
4.8070001602173	-6.6735137264790
4.8159999847412	-6.6587062409550
4.8249998092651	-6.6458318551685
4.8340001106262	-6.6348632198870
4.8429999351501	-6.6257744727485
4.8520002365112	-6.6185374755045
4.8610000610352	-6.6131234698196
4.8699998855591	-6.6095059107072
4.8790001869202	-6.6076551897442
4.8880000114441	-6.6075396953253
4.8969998359680	-6.6091308835554
4.9060001373291	-6.6123975048227
4.9149999618530	-6.6173073681348
4.9239997863770	-6.6238272901087
4.9330000877380	-6.6319237048170
4.9419999122620	-6.6415659153263
4.9510002136230	-6.6527149758119
4.9600000381470	-6.6653396433899
4.9689998626709	-6.6794002246286
4.9780001640320	-6.6948633434684
4.9869999885559	-6.7116895518063
4.9959998130798	-6.7298415436412
5.0050001144409	-6.7492793616830
5.0139999389648	-6.7699653023853
5.0229997634888	-6.7918584617841
5.0320000648499	-6.8149185199664
5.0409998893738	-6.8391033816251
5.0500001907349	-6.8643729005556
5.0590000152588	-6.8906830595549
5.0679998397827	-6.9179912155454
5.0770001411438	-6.9462553877881
5.0859999656677	-6.9754309902286
5.0949997901917	-7.0054718051115
5.1040000915527	-7.0363364950842
5.1129999160767	-7.0679802589150
5.1220002174377	-7.1003563381782
5.1310000419617	-7.1334209830101
5.1399998664856	-7.1671274277601
5.1490001678467	-7.2014329353423
5.1579999923706	-7.2362917609901
5.1669998168945	-7.2716560827626
5.1760001182556	-7.3074855310814
5.1849999427795	-7.3437328500960
5.1939997673035	-7.3803533010674
5.2030000686646	-7.4173057236183
5.2119998931885	-7.4545437300393
5.2210001945496	-7.4920282272194
5.2300000190735	-7.5297139901714
5.2389998435974	-7.5675599384835
5.2480001449585	-7.6055287108332
5.2569999694824	-7.6435780548180
5.2659997940063	-7.6816685984597
5.2750000953674	-7.7197653697129
5.2839999198914	-7.7578307465055
5.2930002212524	-7.7958292962877
5.3020000457764	-7.8337261677650
5.3109998703003	-7.8714901090794
5.3200001716614	-7.9090913537412
5.3289999961853	-7.9464975600015
5.3379998207092	-7.9836804415443
5.3470001220703	-8.0206139149443
5.3559999465942	-8.0572738713930
5.3649997711182	-8.0936362207682
5.3740000724792	-8.1296781106238
5.3829998970032	-8.1653802204435
5.3920001983643	-8.2007252889989
5.4010000228882	-8.2356940477855
5.4099998474121	-8.2702733704436
5.4190001487732	-8.3044512063078
5.4279999732971	-8.3382142420579
5.4369997978210	-8.3715554139464
5.4460000991821	-8.4044641581551
5.4549999237061	-8.4369359259827
5.4640002250671	-8.4689676517023
5.4730000495911	-8.5005541195837
5.4819998741150	-8.5316962495394
5.4910001754761	-8.5623944750029
5.5000000000000	-8.5926528075163
5.5089998245239	-8.6224737321840
5.5180001258850	-8.6518631894888
5.5269999504089	-8.6808266176448
5.5359997749329	-8.7093755127252
5.5450000762939	-8.7375181459944
5.5539999008179	-8.7652660142204
5.5630002021790	-8.7926291344968
5.5720000267029	-8.8196259884092
5.5809998512268	-8.8462662956187
5.5900001525879	-8.8725686682322
5.5989999771118	-8.8985506287204
5.6079998016357	-8.9242270282675
5.6170001029968	-8.9496182468515
5.6259999275208	-8.9747420408912
5.6350002288818	-8.9996180639706
5.6440000534058	-9.0242687640468
5.6529998779297	-9.0487125812760
5.6620001792908	-9.0729700190044
5.6710000038147	-9.0970668592948
5.6799998283386	-9.1210195682083
5.6890001296997	-9.1448525473614
5.6979999542236	-9.1685896546677
5.7069997787476	-9.1922474941024
5.7160000801086	-9.2158524861876
5.7249999046326	-9.2394224189160
5.7340002059937	-9.2629816864930
5.7430000305176	-9.2865489893001
5.7519998550415	-9.3101455102042
5.7610001564026	-9.3337894292267
5.7699999809265	-9.3575022428419
5.7789998054504	-9.3812988447302
5.7880001068115	-9.4051991479206
5.7969999313354	-9.4292176826549
5.8060002326965	-9.4533706857449
5.8150000572205	-9.4776733499070
5.8239998817444	-9.5021365128242
5.8330001831055	-9.5267730390957
5.8420000076294	-9.5515918627244
5.8509998321533	-9.5766034681176
5.8600001335144	-9.6018125414578
5.8689999580383	-9.6272285894558
5.8779997825623	-9.6528494312060
5.8870000839233	-9.6786809316572
5.8959999084473	-9.7047228007355
5.9050002098083	-9.7309712844619
5.9140000343323	-9.7574209379737
5.9229998588562	-9.7840676364789
5.9320001602173	-9.8109000040849
5.9409999847412	-9.8379091890284
5.9499998092651	-9.8650800200990
5.9590001106262	-9.8923953851705
5.9679999351501	-9.9198367174809
5.9770002365112	-9.9473847103727
5.9860000610352	-9.9750115833840
5.9949998855591	-10.002693179977
6.0040001869202	-10.030397362136
6.0130000114441	-10.058095162935
6.0219998359680	-10.085746542891
6.0310001373291	-10.113318028846
6.0399999618530	-10.140765815315
6.0489997863770	-10.168045250918
6.0580000877380	-10.195112923493
6.0669999122620	-10.221917802006
6.0760002136230	-10.248407488541
6.0850000381470	-10.274529641432
6.0939998626709	-10.300224408785
6.1030001640320	-10.325436151376
6.1119999885559	-10.350099924208
6.1209998130798	-10.374155874685
6.1300001144409	-10.397538734643
6.1389999389648	-10.420179106040
6.1479997634888	-10.442012031871
6.1570000648499	-10.462967223068
6.1659998893738	-10.482975176096
6.1750001907349	-10.501966340325
6.1840000152588	-10.519868464261
6.1929998397827	-10.536613287937
6.2020001411438	-10.552132669766
6.2109999656677	-10.566356179489
6.2199997901917	-10.579215931143
6.2290000915527	-10.590650312390
6.2379999160767	-10.600591769563
6.2470002174377	-10.608981403687
6.2560000419617	-10.615762186286
6.2649998664856	-10.620879104056
6.2740001678467	-10.624281902308
6.2829999923706	-10.625923522434
6.2919998168945	-10.625761285688
6.3010001182556	-10.623761281310
6.3099999427795	-10.619889602288
6.3189997673035	-10.614117521830
6.3280000686646	-10.606424780525
6.3369998931885	-10.596798045966
6.3460001945496	-10.585224138828
6.3550000190735	-10.571703762762
6.3639998435974	-10.556233984521
6.3730001449585	-10.538827722323
6.3819999694824	-10.519496540773
6.3909997940063	-10.498262342457
6.4000000953674	-10.475149666445
