#Parameters = {h=1.5; l=55; n=8.5; w=50; wp=3; x=13}
#"Frequency / GHz"	"S1,1 (12) [Magnitude / dB]"
#----------------------------------------------
1.0000000000000	-0.51981555614024
1.0089999437332	-0.51038732823529
1.0180000066757	-0.50259248700393
1.0269999504089	-0.49649435230106
1.0360000133514	-0.49215207644281
1.0449999570847	-0.48962225127305
1.0540000200272	-0.48896222373363
1.0629999637604	-0.49022244419000
1.0720000267029	-0.49345660969105
1.0809999704361	-0.49871435614725
1.0900000333786	-0.50604323352793
1.0989999771118	-0.51548958014165
1.1080000400543	-0.52709881708415
1.1169999837875	-0.54091553591248
1.1260000467300	-0.55698395810494
1.1349999904633	-0.57534404510702
1.1440000534058	-0.59603787231702
1.1529999971390	-0.61910674774907
1.1619999408722	-0.64458711096533
1.1710000038147	-0.67252043798724
1.1799999475479	-0.70294564742771
1.1890000104904	-0.73589876647811
1.1979999542236	-0.77141839507824
1.2070000171661	-0.80954082917560
1.2159999608994	-0.85030340380329
1.2250000238419	-0.89374487694639
1.2339999675751	-0.93989956377053
1.2430000305176	-0.98880216997754
1.2519999742508	-1.0404934695910
1.2610000371933	-1.0950068745550
1.2699999809265	-1.1523793306966
1.2790000438690	-1.2126483048767
1.2879999876022	-1.2758477676672
1.2970000505447	-1.3420162895853
1.3059999942780	-1.4111905199824
1.3150000572205	-1.4834055121472
1.3240000009537	-1.5586992231984
1.3329999446869	-1.6371080895611
1.3420000076294	-1.7186693945734
1.3509999513626	-1.8034221216577
1.3600000143051	-1.8914002659526
1.3689999580383	-1.9826430216020
1.3780000209808	-2.0771890686546
1.3869999647141	-2.1750746976364
1.3960000276566	-2.2763392057508
1.4049999713898	-2.3810201493600
1.4140000343323	-2.4891554163561
1.4229999780655	-2.6007855187792
1.4320000410080	-2.7159451936276
1.4409999847412	-2.8346765600181
1.4500000476837	-2.9570176930208
1.4589999914169	-3.0830074155707
1.4680000543594	-3.2126839879444
1.4769999980927	-3.3460875963974
1.4859999418259	-3.4832574614992
1.4950000047684	-3.6242317240761
1.5039999485016	-3.7690500071965
1.5130000114441	-3.9177506257669
1.5219999551773	-4.0703758905570
1.5310000181198	-4.2269600270972
1.5399999618530	-4.3875423614309
1.5490000247955	-4.5521625861929
1.5579999685287	-4.7208566708057
1.5670000314713	-4.8936628019831
1.5759999752045	-5.0706145829762
1.5850000381470	-5.2517475684447
1.5939999818802	-5.4370959343415
1.6030000448227	-5.6266891424906
1.6119999885559	-5.8205591876644
1.6210000514984	-6.0187315557973
1.6299999952316	-6.2212298503170
1.6390000581741	-6.4280754787114
1.6480000019073	-6.6392814965605
1.6569999456406	-6.8548612432928
1.6660000085831	-7.0748169459487
1.6749999523163	-7.2991449902283
1.6840000152588	-7.5278336544428
1.6929999589920	-7.7608594370548
1.7020000219345	-7.9981870536934
1.7109999656677	-8.2397666437757
1.7200000286102	-8.4855317518393
1.7289999723434	-8.7353935792618
1.7380000352859	-8.9892439416919
1.7469999790192	-9.2469425932402
1.7560000419617	-9.5083218899473
1.7649999856949	-9.7731758900756
1.7740000486374	-10.041259410692
1.7829999923706	-10.312275102744
1.7920000553131	-10.585871942011
1.8009999990463	-10.861635914796
1.8099999427795	-11.139090028543
1.8190000057220	-11.417667240115
1.8279999494553	-11.696719948079
1.8370000123978	-11.975501096324
1.8459999561310	-12.253162169722
1.8550000190735	-12.528741251032
1.8639999628067	-12.801161576023
1.8730000257492	-13.069223253040
1.8819999694824	-13.331612564685
1.8910000324249	-13.586899827494
1.8999999761581	-13.833555944117
1.9090000391006	-14.069970414390
1.9179999828339	-14.294479833095
1.9270000457764	-14.505402701271
1.9359999895096	-14.701085023623
1.9450000524521	-14.879945498350
1.9539999961853	-15.040540533555
1.9630000591278	-15.181610000804
1.9720000028610	-15.302140557522
1.9809999465942	-15.401402363856
1.9900000095367	-15.478992542652
1.9989999532700	-15.534843264898
2.0079998970032	-15.569237874387
2.0169999599457	-15.582782288919
2.0260000228882	-15.576378916905
2.0350000858307	-15.551190274887
2.0439999103546	-15.508572056111
2.0529999732971	-15.450031112273
2.0620000362396	-15.377163150163
2.0710000991821	-15.291594841317
2.0799999237061	-15.194953140295
2.0889999866486	-15.088814664292
2.0980000495911	-14.974683764907
2.1070001125336	-14.853963716748
2.1159999370575	-14.727951499592
2.1250000000000	-14.597827097374
2.1340000629425	-14.464650023083
2.1429998874664	-14.329362215993
2.1519999504089	-14.192795563605
2.1610000133514	-14.055674099163
2.1700000762939	-13.918626867538
2.1789999008179	-13.782190362355
2.1879999637604	-13.646825101765
2.1970000267029	-13.512916632074
2.2060000896454	-13.380791494014
2.2149999141693	-13.250716492353
2.2239999771118	-13.122908609951
2.2330000400543	-12.997546318647
2.2420001029968	-12.874769936120
2.2509999275208	-12.754687062778
2.2599999904633	-12.637378960935
2.2690000534058	-12.522904574742
2.2780001163483	-12.411300015207
2.2869999408722	-12.302587730703
2.2960000038147	-12.196775576957
2.3050000667572	-12.093856625027
2.3139998912811	-11.993816220118
2.3229999542236	-11.896632265218
2.3320000171661	-11.802273815179
2.3410000801086	-11.710705932332
2.3499999046326	-11.621887370407
2.3589999675751	-11.535774421608
2.3680000305176	-11.452320102485
2.3770000934601	-11.371475687691
2.3859999179840	-11.293189536235
2.3949999809265	-11.217409651557
2.4040000438690	-11.144082172139
2.4130001068115	-11.073154402599
2.4219999313354	-11.004569521382
2.4309999942780	-10.938275342933
2.4400000572205	-10.874216915393
2.4489998817444	-10.812340797219
2.4579999446869	-10.752591424531
2.4670000076294	-10.694917583008
2.4760000705719	-10.639261114881
2.4849998950958	-10.585574997504
2.4939999580383	-10.533802399298
2.5030000209808	-10.483893898844
2.5120000839233	-10.435796418551
2.5209999084473	-10.389458960919
2.5299999713898	-10.344832975614
2.5390000343323	-10.301864807940
2.5480000972748	-10.260507086669
2.5569999217987	-10.220710011026
2.5659999847412	-10.182423501266
2.5750000476837	-10.145598141117
2.5840001106262	-10.110186456677
2.5929999351501	-10.076137827249
2.6019999980927	-10.043407555054
2.6110000610352	-10.011943337197
2.6199998855591	-9.9817016843309
2.6289999485016	-9.9526296253991
2.6380000114441	-9.9246838382006
2.6470000743866	-9.8978142222554
2.6559998989105	-9.8719736761017
2.6649999618530	-9.8471155655060
2.6740000247955	-9.8231906067014
2.6830000877380	-9.8001511797913
2.6919999122620	-9.7779519727482
2.7009999752045	-9.7565443348513
2.7100000381470	-9.7358821451469
2.7190001010895	-9.7159173441600
2.7279999256134	-9.6966023493368
2.7369999885559	-9.6778928345913
2.7460000514984	-9.6597390692324
2.7550001144409	-9.6420971228075
2.7639999389648	-9.6249185661483
2.7730000019073	-9.6081610005567
2.7820000648499	-9.5917765544582
2.7909998893738	-9.5757204959573
2.7999999523163	-9.5599515642990
2.8090000152588	-9.5444227831350
2.8180000782013	-9.5290919320473
2.8269999027252	-9.5139186655809
2.8359999656677	-9.4988571723972
2.8450000286102	-9.4838717043580
2.8540000915527	-9.4689202086630
2.8629999160767	-9.4539644132468
2.8719999790192	-9.4389671919313
2.8810000419617	-9.4238923259505
2.8900001049042	-9.4087057915127
2.8989999294281	-9.3933719949985
2.9079999923706	-9.3778605456022
2.9170000553131	-9.3621417172552
2.9260001182556	-9.3461849164385
2.9349999427795	-9.3299636092825
2.9440000057220	-9.3134536728064
2.9530000686646	-9.2966297174893
2.9619998931885	-9.2794694787896
2.9709999561310	-9.2619564648967
2.9800000190735	-9.2440684471108
2.9890000820160	-9.2257922866588
2.9979999065399	-9.2071139837257
3.0069999694824	-9.1880200809953
3.0160000324249	-9.1685042771256
3.0250000953674	-9.1485547376573
3.0339999198914	-9.1281689322091
3.0429999828339	-9.1073418379795
3.0520000457764	-9.0860720258975
3.0610001087189	-9.0643595021225
3.0699999332428	-9.0422064741428
3.0789999961853	-9.0196201047943
3.0880000591278	-8.9966033868285
3.0969998836517	-8.9731653401845
3.1059999465942	-8.9493166524244
3.1150000095367	-8.9250683841108
3.1240000724792	-8.9004335467841
3.1329998970032	-8.8754261803666
3.1419999599457	-8.8500626719586
3.1510000228882	-8.8243615636412
3.1600000858307	-8.7983412950501
3.1689999103546	-8.7720197760659
3.1779999732971	-8.7454210121103
3.1870000362396	-8.7185641574320
3.1960000991821	-8.6914731841528
3.2049999237061	-8.6641729351661
3.2139999866486	-8.6366850772625
3.2230000495911	-8.6090352970611
3.2320001125336	-8.5812484943719
3.2409999370575	-8.5533512975957
3.2500000000000	-8.5253677964904
3.2590000629425	-8.4973234226178
3.2679998874664	-8.4692441880879
3.2769999504089	-8.4411571758248
3.2860000133514	-8.4130862679292
3.2950000762939	-8.3850560376877
3.3039999008179	-8.3570928855789
3.3129999637604	-8.3292192256910
3.3220000267029	-8.3014593589128
3.3310000896454	-8.2738373261746
3.3399999141693	-8.2463737596927
3.3489999771118	-8.2190899342932
3.3580000400543	-8.1920092189245
3.3670001029968	-8.1651489879219
3.3759999275208	-8.1385274481173
3.3849999904633	-8.1121640915895
3.3940000534058	-8.0860739960642
3.4030001163483	-8.0602728489850
3.4119999408722	-8.0347747621210
3.4210000038147	-8.0095933028606
3.4300000667572	-7.9847391712443
3.4389998912811	-7.9602218017183
3.4479999542236	-7.9360524818198
3.4570000171661	-7.9122383957079
3.4660000801086	-7.8887846443922
3.4749999046326	-7.8656957021761
3.4839999675751	-7.8429743170948
3.4930000305176	-7.8206241482444
3.5020000934601	-7.7986442487782
3.5109999179840	-7.7770350335119
3.5199999809265	-7.7557920971302
3.5290000438690	-7.7349120627101
3.5380001068115	-7.7143898398741
3.5469999313354	-7.6942192134838
3.5559999942780	-7.6743891215176
3.5650000572205	-7.6548922550645
3.5739998817444	-7.6357173487594
3.5829999446869	-7.6168502344951
3.5920000076294	-7.5982781508258
3.6010000705719	-7.5799855604407
3.6099998950958	-7.5619560634647
3.6189999580383	-7.5441721535482
3.6280000209808	-7.5266153117567
3.6370000839233	-7.5092658630549
3.6459999084473	-7.4921014053522
3.6549999713898	-7.4751015452831
3.6640000343323	-7.4582422027854
3.6730000972748	-7.4415007046874
3.6819999217987	-7.4248525370588
3.6909999847412	-7.4082705118279
3.7000000476837	-7.3917323473674
3.7090001106262	-7.3752089122250
3.7179999351501	-7.3586746047651
3.7269999980927	-7.3421029697753
3.7360000610352	-7.3254642133008
3.7449998855591	-7.3087348408579
3.7539999485016	-7.2918848741623
3.7630000114441	-7.2748880292998
3.7720000743866	-7.2577169018820
3.7809998989105	-7.2403463839305
3.7899999618530	-7.2227488430357
3.7990000247955	-7.2048990132494
3.8080000877380	-7.1867721876522
3.8169999122620	-7.1683448998010
3.8259999752045	-7.1495936166505
3.8350000381470	-7.1304959744571
3.8440001010895	-7.1110319430311
3.8529999256134	-7.0911822188101
3.8619999885559	-7.0709289808219
3.8710000514984	-7.0502532915144
3.8800001144409	-7.0291437081708
3.8889999389648	-7.0075851780106
3.8980000019073	-6.9855654262869
3.9070000648499	-6.9630752685264
3.9159998893738	-6.9401067865769
3.9249999523163	-6.9166546248213
3.9340000152588	-6.8927149495277
3.9430000782013	-6.8682857401163
3.9519999027252	-6.8433653787790
3.9609999656677	-6.8179586238786
3.9700000286102	-6.7920695578600
3.9790000915527	-6.7657034543367
3.9879999160767	-6.7388690650270
3.9969999790192	-6.7115780647231
4.0060000419617	-6.6838425029765
4.0149998664856	-6.6556765690704
4.0240001678467	-6.6270972183439
4.0329999923706	-6.5981231607570
4.0419998168945	-6.5687728336120
4.0510001182556	-6.5390705712441
4.0599999427795	-6.5090382666533
4.0689997673035	-6.4787019110391
4.0780000686646	-6.4480866759560
4.0869998931885	-6.4172218007788
4.0960001945496	-6.3861374384281
4.1050000190735	-6.3548614514098
4.1139998435974	-6.3234271578908
4.1230001449585	-6.2918651251431
4.1319999694824	-6.2602098625008
4.1409997940063	-6.2284954573815
4.1500000953674	-6.1967550977464
4.1589999198914	-6.1650243312905
4.1680002212524	-6.1333397457684
4.1770000457764	-6.1017359574665
4.1859998703003	-6.0702478949926
4.1950001716614	-6.0389121589054
4.2039999961853	-6.0077677375421
4.2129998207092	-5.9768459906006
4.2220001220703	-5.9461831136163
4.2309999465942	-5.9158177869391
4.2399997711182	-5.8857838624637
4.2490000724792	-5.8561158874885
4.2579998970032	-5.8268467897568
4.2670001983643	-5.7980102199513
4.2760000228882	-5.7696410644335
4.2849998474121	-5.7417726694178
4.2940001487732	-5.7144333473421
4.3029999732971	-5.6876574481037
4.3119997978210	-5.6614735988827
4.3210000991821	-5.6359106054349
4.3299999237061	-5.6109983740843
4.3390002250671	-5.5867633886973
4.3480000495911	-5.5632336248080
4.3569998741150	-5.5404331166665
4.3660001754761	-5.5183872486953
4.3750000000000	-5.4971210536270
4.3839998245239	-5.4766565476651
4.3930001258850	-5.4570153508836
4.4019999504089	-5.4382184766573
4.4109997749329	-5.4202848727009
4.4200000762939	-5.4032345755088
4.4289999008179	-5.3870836455634
4.4380002021790	-5.3718494757834
4.4470000267029	-5.3575460484060
4.4559998512268	-5.3441901890954
4.4650001525879	-5.3317950169789
4.4739999771118	-5.3203716129599
4.4829998016357	-5.3099309667710
4.4920001029968	-5.3004831365088
4.5009999275208	-5.2920393408043
4.5100002288818	-5.2846039228444
4.5190000534058	-5.2781863670343
4.5279998779297	-5.2727933972535
4.5370001792908	-5.2684271441117
4.5460000038147	-5.2650927083857
4.5549998283386	-5.2627928451763
4.5640001296997	-5.2615264776593
4.5729999542236	-5.2612979014775
4.5819997787476	-5.2621042320504
4.5910000801086	-5.2639454474061
4.5999999046326	-5.2668163027004
4.6090002059937	-5.2707151933539
4.6180000305176	-5.2756377340879
4.6269998550415	-5.2815768295745
4.6360001564026	-5.2885248249570
4.6449999809265	-5.2964739583390
4.6539998054504	-5.3054173240577
4.6630001068115	-5.3153431046001
4.6719999313354	-5.3262409780017
4.6810002326965	-5.3380970319331
4.6900000572205	-5.3509001170588
4.6989998817444	-5.3646356813121
4.7080001831055	-5.3792873478045
4.7170000076294	-5.3948408089529
4.7259998321533	-5.4112774862264
4.7350001335144	-5.4285806750007
4.7439999580383	-5.4467302846924
4.7529997825623	-5.4657069000253
4.7620000839233	-5.4854884651873
4.7709999084473	-5.5060546661075
4.7800002098083	-5.5273817726984
4.7890000343323	-5.5494466394759
4.7979998588562	-5.5722259422249
4.8070001602173	-5.5956931572195
4.8159999847412	-5.6198224314318
4.8249998092651	-5.6445864780002
4.8340001106262	-5.6699587942463
4.8429999351501	-5.6959104714945
4.8520002365112	-5.7224121736473
4.8610000610352	-5.7494360884682
4.8699998855591	-5.7769523773855
4.8790001869202	-5.8049268202603
4.8880000114441	-5.8333331904103
4.8969998359680	-5.8621354403259
4.9060001373291	-5.8913046866942
4.9149999618530	-5.9208056507330
4.9239997863770	-5.9506092597552
4.9330000877380	-5.9806775061178
4.9419999122620	-6.0109830933931
4.9510002136230	-6.0414869643749
4.9600000381470	-6.0721600443260
4.9689998626709	-6.1029657524458
4.9780001640320	-6.1338703010017
4.9869999885559	-6.1648428353238
4.9959998130798	-6.1958476338730
5.0050001144409	-6.2268524490801
5.0139999389648	-6.2578235471106
5.0229997634888	-6.2887286310400
5.0320000648499	-6.3195360650607
5.0409998893738	-6.3502128630512
5.0500001907349	-6.3807272834553
5.0590000152588	-6.4110492809481
5.0679998397827	-6.4411487805343
5.0770001411438	-6.4709947215333
5.0859999656677	-6.5005603186879
5.0949997901917	-6.5298165633070
5.1040000915527	-6.5587351779122
5.1129999160767	-6.5872927842555
5.1220002174377	-6.6154625254257
5.1310000419617	-6.6432185034264
5.1399998664856	-6.6705398811180
5.1490001678467	-6.6974054481923
5.1579999923706	-6.7237943569281
5.1669998168945	-6.7496842935485
5.1760001182556	-6.7750604846296
5.1849999427795	-6.7999049757865
5.1939997673035	-6.8242023842265
5.2030000686646	-6.8479379462499
5.2119998931885	-6.8711017901200
5.2210001945496	-6.8936809888408
5.2300000190735	-6.9156672707383
5.2389998435974	-6.9370533138878
5.2480001449585	-6.9578304055108
5.2569999694824	-6.9779974960059
5.2659997940063	-6.9975482304292
5.2750000953674	-7.0164846023755
5.2839999198914	-7.0348043630771
5.2930002212524	-7.0525102358877
5.3020000457764	-7.0696066650711
5.3109998703003	-7.0860965647304
5.3200001716614	-7.1019889071602
5.3289999961853	-7.1172929472039
5.3379998207092	-7.1320144905247
5.3470001220703	-7.1461685808569
5.3559999465942	-7.1597665223236
5.3649997711182	-7.1728229290122
5.3740000724792	-7.1853541957805
5.3829998970032	-7.1973775933497
5.3920001983643	-7.2089092922221
5.4010000228882	-7.2199721286160
5.4099998474121	-7.2305850577515
5.4190001487732	-7.2407711880901
5.4279999732971	-7.2505530218266
5.4369997978210	-7.2599551795741
5.4460000991821	-7.2690034211222
5.4549999237061	-7.2777241959879
5.4640002250671	-7.2861418442030
5.4730000495911	-7.2942867928392
5.4819998741150	-7.3021864560857
5.4910001754761	-7.3098704291619
5.5000000000000	-7.3173695191420
5.5089998245239	-7.3247095765843
5.5180001258850	-7.3319251697318
5.5269999504089	-7.3390471852513
5.5359997749329	-7.3461028015430
5.5450000762939	-7.3531269923626
5.5539999008179	-7.3601480487893
5.5630002021790	-7.3671999273873
5.5720000267029	-7.3743130544136
5.5809998512268	-7.3815183808576
5.5900001525879	-7.3888465672064
5.5989999771118	-7.3963273438788
5.6079998016357	-7.4039925952501
5.6170001029968	-7.4118731970033
5.6259999275208	-7.4199951271876
5.6350002288818	-7.4283896838371
5.6440000534058	-7.4370847090015
5.6529998779297	-7.4461068353578
5.6620001792908	-7.4554814281147
5.6710000038147	-7.4652387893611
5.6799998283386	-7.4754007945286
5.6890001296997	-7.4859919965678
5.6979999542236	-7.4970369138653
5.7069997787476	-7.5085538919172
5.7160000801086	-7.5205679758801
5.7249999046326	-7.5330954102689
5.7340002059937	-7.5461577375891
5.7430000305176	-7.5597694016004
5.7519998550415	-7.5739473414200
5.7610001564026	-7.5887064154138
5.7699999809265	-7.6040580715446
5.7789998054504	-7.6200148687874
5.7880001068115	-7.6365856939171
5.7969999313354	-7.6537785002630
5.8060002326965	-7.6716017688484
5.8150000572205	-7.6900557746775
5.8239998817444	-7.7091480071118
5.8330001831055	-7.7288762651666
5.8420000076294	-7.7492406564307
5.8509998321533	-7.7702375547113
5.8600001335144	-7.7918641265598
5.8689999580383	-7.8141094669217
5.8779997825623	-7.8369665836675
5.8870000839233	-7.8604243989742
5.8959999084473	-7.8844687871083
5.9050002098083	-7.9090832857080
5.9140000343323	-7.9342503101320
5.9229998588562	-7.9599500325603
5.9320001602173	-7.9861579311096
5.9409999847412	-8.0128491546387
5.9499998092651	-8.0399974669466
5.9590001106262	-8.0675712159765
5.9679999351501	-8.0955381173430
5.9770002365112	-8.1238628253459
5.9860000610352	-8.1525071566201
5.9949998855591	-8.1814343733796
6.0040001869202	-8.2105967866028
6.0130000114441	-8.2399555056286
6.0219998359680	-8.2694595928865
6.0310001373291	-8.2990611130789
6.0399999618530	-8.3287091459444
6.0489997863770	-8.3583489294957
6.0580000877380	-8.3879235328276
6.0669999122620	-8.4173778976285
6.0760002136230	-8.4466510045666
6.0850000381470	-8.4756816164131
6.0939998626709	-8.5044096984029
6.1030001640320	-8.5327687883929
6.1119999885559	-8.5606947054853
6.1209998130798	-8.5881204565496
6.1300001144409	-8.6149833164386
6.1389999389648	-8.6412136731795
6.1479997634888	-8.6667431666347
6.1570000648499	-8.6915078593218
6.1659998893738	-8.7154396571997
6.1750001907349	-8.7384710079705
6.1840000152588	-8.7605398502234
6.1929998397827	-8.7815809229554
6.2020001411438	-8.8015331928018
6.2109999656677	-8.8203367015441
6.2199997901917	-8.8379311559746
6.2290000915527	-8.8542653335439
6.2379999160767	-8.8692822303919
6.2470002174377	-8.8829357301855
6.2560000419617	-8.8951791401145
6.2649998664856	-8.9059719263247
6.2740001678467	-8.9152733059945
6.2829999923706	-8.9230510854204
6.2919998168945	-8.9292745177018
6.3010001182556	-8.9339196197173
6.3099999427795	-8.9369673531258
6.3189997673035	-8.9383983876459
6.3280000686646	-8.9382069668925
6.3369998931885	-8.9363843789242
6.3460001945496	-8.9329316397680
6.3550000190735	-8.9278516283888
6.3639998435974	-8.9211558661877
6.3730001449585	-8.9128548185812
6.3819999694824	-8.9029710533504
6.3909997940063	-8.8915247136887
