#Parameters = {h=1.5; l=55; n=14.8; w=50; wp=3; x=13.3}
#"Frequency / GHz"	"S1,1 (24) [Magnitude / dB]"
#----------------------------------------------
1.0000000000000	-0.52736591063757
1.0089999437332	-0.52486967029971
1.0180000066757	-0.52391299877359
1.0269999504089	-0.52455091811478
1.0360000133514	-0.52683814127356
1.0449999570847	-0.53082969788858
1.0540000200272	-0.53657798437822
1.0629999637604	-0.54413470723071
1.0720000267029	-0.55355208894873
1.0809999704361	-0.56488008040208
1.0900000333786	-0.57817050089921
1.0989999771118	-0.59347186278795
1.1080000400543	-0.61083579028288
1.1169999837875	-0.63030781955287
1.1260000467300	-0.65194079589433
1.1349999904633	-0.67577954401822
1.1440000534058	-0.70187641818211
1.1529999971390	-0.73027705429848
1.1619999408722	-0.76103209477337
1.1710000038147	-0.79419050295136
1.1799999475479	-0.82979744509042
1.1890000104904	-0.86790623218513
1.1979999542236	-0.90856664169498
1.2070000171661	-0.95182471684089
1.2159999608994	-0.99773530009154
1.2250000238419	-1.0463454542839
1.2339999675751	-1.0977114483343
1.2430000305176	-1.1518802714812
1.2519999742508	-1.2089081334607
1.2610000371933	-1.2688470874657
1.2699999809265	-1.3317529091228
1.2790000438690	-1.3976806544217
1.2879999876022	-1.4666859601474
1.2970000505447	-1.5388259019084
1.3059999942780	-1.6141612206294
1.3150000572205	-1.6927480573570
1.3240000009537	-1.7746488457691
1.3329999446869	-1.8599263909226
1.3420000076294	-1.9486421095762
1.3509999513626	-2.0408609244168
1.3600000143051	-2.1366481959380
1.3689999580383	-2.2360726505682
1.3780000209808	-2.3392027864900
1.3869999647141	-2.4461081550978
1.3960000276566	-2.5568620853950
1.4049999713898	-2.6715376557701
1.4140000343323	-2.7902118203663
1.4229999780655	-2.9129618818554
1.4320000410080	-3.0398669800955
1.4409999847412	-3.1710111167764
1.4500000476837	-3.3064746557731
1.4589999914169	-3.4463490714050
1.4680000543594	-3.5907189394923
1.4769999980927	-3.7396775880660
1.4859999418259	-3.8933197540278
1.4950000047684	-4.0517428337981
1.5039999485016	-4.2150431084496
1.5130000114441	-4.3833246408869
1.5219999551773	-4.5566937638690
1.5310000181198	-4.7352599973915
1.5399999618530	-4.9191329224547
1.5490000247955	-5.1084298437029
1.5579999685287	-5.3032660810253
1.5670000314713	-5.5037629043855
1.5759999752045	-5.7100453201348
1.5850000381470	-5.9222397659808
1.5939999818802	-6.1404730012220
1.6030000448227	-6.3648796211654
1.6119999885559	-6.5955899459309
1.6210000514984	-6.8327366272496
1.6299999952316	-7.0764504840869
1.6390000581741	-7.3268641718517
1.6480000019073	-7.5841031955460
1.6569999456406	-7.8482864957372
1.6660000085831	-8.1195300363485
1.6749999523163	-8.3979303030873
1.6840000152588	-8.6835719829229
1.6929999589920	-8.9765146960231
1.7020000219345	-9.2767917744611
1.7109999656677	-9.5843953644507
1.7200000286102	-9.8992682091501
1.7289999723434	-10.221297679475
1.7380000352859	-10.550286403369
1.7469999790192	-10.885942021939
1.7560000419617	-11.227850496960
1.7649999856949	-11.575452424951
1.7740000486374	-11.927998548872
1.7829999923706	-12.284526838142
1.7920000553131	-12.643803683253
1.8009999990463	-13.004285754108
1.8099999427795	-13.364064681073
1.8190000057220	-13.720825437941
1.8279999494553	-14.071789293153
1.8370000123978	-14.413702790741
1.8459999561310	-14.742825778337
1.8550000190735	-15.054973783188
1.8639999628067	-15.345604923053
1.8730000257492	-15.609978807306
1.8819999694824	-15.843378771683
1.8910000324249	-16.041390753552
1.8999999761581	-16.200229369224
1.9090000391006	-16.317047845764
1.9179999828339	-16.390205551208
1.9270000457764	-16.419418516505
1.9359999895096	-16.405797693640
1.9450000524521	-16.351725340003
1.9539999961853	-16.260635179114
1.9630000591278	-16.136701186567
1.9720000028610	-15.984521044682
1.9809999465942	-15.808814559466
1.9900000095367	-15.614176889401
1.9989999532700	-15.404892408855
2.0079998970032	-15.184833593924
2.0169999599457	-14.957393584242
2.0260000228882	-14.725479409928
2.0350000858307	-14.491532880264
2.0439999103546	-14.257563229385
2.0529999732971	-14.025201049159
2.0620000362396	-13.795744036260
2.0710000991821	-13.570208874340
2.0799999237061	-13.349373312022
2.0889999866486	-13.133822869505
2.0980000495911	-12.923976409675
2.1070001125336	-12.720127608562
2.1159999370575	-12.522459327185
2.1250000000000	-12.331073761309
2.1340000629425	-12.146003465396
2.1429998874664	-11.967229256654
2.1519999504089	-11.794690441186
2.1610000133514	-11.628289338312
2.1700000762939	-11.467912473812
2.1789999008179	-11.313418486703
2.1879999637604	-11.164658978396
2.1970000267029	-11.021472203767
2.2060000896454	-10.883691486008
2.2149999141693	-10.751143799428
2.2239999771118	-10.623655498957
2.2330000400543	-10.501052633796
2.2420001029968	-10.383159619220
2.2509999275208	-10.269803608468
2.2599999904633	-10.160813112373
2.2690000534058	-10.056020648910
2.2780001163483	-9.9552591315173
2.2869999408722	-9.8583673830641
2.2960000038147	-9.7651833712124
2.3050000667572	-9.6755560249334
2.3139998912811	-9.5893289755316
2.3229999542236	-9.5063553894011
2.3320000171661	-9.4264914762604
2.3410000801086	-9.3495944218988
2.3499999046326	-9.2755276094150
2.3589999675751	-9.2041568408972
2.3680000305176	-9.1353519789318
2.3770000934601	-9.0689885661317
2.3859999179840	-9.0049391192406
2.3949999809265	-8.9430878475958
2.4040000438690	-8.8833152151663
2.4130001068115	-8.8255094302747
2.4219999313354	-8.7695617721270
2.4309999942780	-8.7153641795144
2.4400000572205	-8.6628154580898
2.4489998817444	-8.6118147890352
2.4579999446869	-8.5622659003869
2.4670000076294	-8.5140777505723
2.4760000705719	-8.4671560449961
2.4849998950958	-8.4214180914795
2.4939999580383	-8.3767787982762
2.5030000209808	-8.3331586833583
2.5120000839233	-8.2904816470512
2.5209999084473	-8.2486730922979
2.5299999713898	-8.2076630036596
2.5390000343323	-8.1673859110613
2.5480000972748	-8.1277756376981
2.5569999217987	-8.0887748802253
2.5659999847412	-8.0503242442274
2.5750000476837	-8.0123716153300
2.5840001106262	-7.9748631923297
2.5929999351501	-7.9377547363874
2.6019999980927	-7.9010000132096
2.6110000610352	-7.8645597998921
2.6199998855591	-7.8283928549347
2.6289999485016	-7.7924668048477
2.6380000114441	-7.7567501417889
2.6470000743866	-7.7212105706339
2.6559998989105	-7.6858222973495
2.6649999618530	-7.6505640609656
2.6740000247955	-7.6154131443500
2.6830000877380	-7.5803505122870
2.6919999122620	-7.5453626318431
2.7009999752045	-7.5104331229522
2.7100000381470	-7.4755528701608
2.7190001010895	-7.4407133033040
2.7279999256134	-7.4059060893438
2.7369999885559	-7.3711265704098
2.7460000514984	-7.3363720745486
2.7550001144409	-7.3016406737325
2.7639999389648	-7.2669336618312
2.7730000019073	-7.2322525887547
2.7820000648499	-7.1975987432047
2.7909998893738	-7.1629797689541
2.7999999523163	-7.1283994021655
2.8090000152588	-7.0938640267764
2.8180000782013	-7.0593825790504
2.8269999027252	-7.0249638433287
2.8359999656677	-6.9906132504611
2.8450000286102	-6.9563455273200
2.8540000915527	-6.9221673920526
2.8629999160767	-6.8880901198904
2.8719999790192	-6.8541254725026
2.8810000419617	-6.8202833948813
2.8900001049042	-6.7865754179015
2.8989999294281	-6.7530134729700
2.9079999923706	-6.7196087259850
2.9170000553131	-6.6863698925146
2.9260001182556	-6.6533099554748
2.9349999427795	-6.6204396685058
2.9440000057220	-6.5877689704484
2.9530000686646	-6.5553055584769
2.9619998931885	-6.5230613587793
2.9709999561310	-6.4910452026330
2.9800000190735	-6.4592642199293
2.9890000820160	-6.4277264080433
2.9979999065399	-6.3964394650757
3.0069999694824	-6.3654098745550
3.0160000324249	-6.3346437580392
3.0250000953674	-6.3041466561790
3.0339999198914	-6.2739214209315
3.0429999828339	-6.2439733287643
3.0520000457764	-6.2143043277508
3.0610001087189	-6.1849184946290
3.0699999332428	-6.1558168451201
3.0789999961853	-6.1269986132843
3.0880000591278	-6.0984653299768
3.0969998836517	-6.0702163745417
3.1059999465942	-6.0422508173323
3.1150000095367	-6.0145649093056
3.1240000724792	-5.9871575821730
3.1329998970032	-5.9600232643561
3.1419999599457	-5.9331603317446
3.1510000228882	-5.9065618085543
3.1600000858307	-5.8802229888050
3.1689999103546	-5.8541369747344
3.1779999732971	-5.8282989877705
3.1870000362396	-5.8026996932831
3.1960000991821	-5.7773305726148
3.2049999237061	-5.7521850670137
3.2139999866486	-5.7272534750559
3.2230000495911	-5.7025275071045
3.2320001125336	-5.6779957827346
3.2409999370575	-5.6536503973647
3.2500000000000	-5.6294789773286
3.2590000629425	-5.6054697083051
3.2679998874664	-5.5816152865438
3.2769999504089	-5.5579010558904
3.2860000133514	-5.5343173707416
3.2950000762939	-5.5108523632693
3.3039999008179	-5.4874937810343
3.3129999637604	-5.4642285370569
3.3220000267029	-5.4410470363274
3.3310000896454	-5.4179387334232
3.3399999141693	-5.3948896380296
3.3489999771118	-5.3718887922198
3.3580000400543	-5.3489231729078
3.3670001029968	-5.3259851777008
3.3759999275208	-5.3030629745412
3.3849999904633	-5.2801443587906
3.3940000534058	-5.2572188448887
3.4030001163483	-5.2342767465392
3.4119999408722	-5.2113103823801
3.4210000038147	-5.1883088512942
3.4300000667572	-5.1652643908045
3.4389998912811	-5.1421686776622
3.4479999542236	-5.1190151270845
3.4570000171661	-5.0957950772588
3.4660000801086	-5.0725047155029
3.4749999046326	-5.0491351579173
3.4839999675751	-5.0256841842165
3.4930000305176	-5.0021455928150
3.5020000934601	-4.9785179101641
3.5109999179840	-4.9547970721917
3.5199999809265	-4.9309806438763
3.5290000438690	-4.9070685788741
3.5380001068115	-4.8830590948723
3.5469999313354	-4.8589532617285
3.5559999942780	-4.8347527159004
3.5650000572205	-4.8104589241346
3.5739998817444	-4.7860744177013
3.5829999446869	-4.7616020832733
3.5920000076294	-4.7370486266674
3.6010000705719	-4.7124172984657
3.6099998950958	-4.6877129286534
3.6189999580383	-4.6629461913553
3.6280000209808	-4.6381215264864
3.6370000839233	-4.6132478351311
3.6459999084473	-4.5883344087943
3.6549999713898	-4.5633891722060
3.6640000343323	-4.5384255286555
3.6730000972748	-4.5134522571142
3.6819999217987	-4.4884819040674
3.6909999847412	-4.4635264170362
3.7000000476837	-4.4385990588524
3.7090001106262	-4.4137148786361
3.7179999351501	-4.3888834781444
3.7269999980927	-4.3641213248230
3.7360000610352	-4.3394455636639
3.7449998855591	-4.3148696745749
3.7539999485016	-4.2904095351540
3.7630000114441	-4.2660806528956
3.7720000743866	-4.2418982891026
3.7809998989105	-4.2178821692896
3.7899999618530	-4.1940479565500
3.7990000247955	-4.1704123282121
3.8080000877380	-4.1469909180376
3.8169999122620	-4.1238049210833
3.8259999752045	-4.1008688994964
3.8350000381470	-4.0782029942618
3.8440001010895	-4.0558231455532
3.8529999256134	-4.0337455927018
3.8619999885559	-4.0119937662556
3.8710000514984	-3.9905792194462
3.8800001144409	-3.9695217688934
3.8889999389648	-3.9488408571878
3.8980000019073	-3.9285522401111
3.9070000648499	-3.9086740077503
3.9159998893738	-3.8892221665595
3.9249999523163	-3.8702153068290
3.9340000152588	-3.8516698658004
3.9430000782013	-3.8336016507277
3.9519999027252	-3.8160279529062
3.9609999656677	-3.7989638224986
3.9700000286102	-3.7824278273933
3.9790000915527	-3.7664329263059
3.9879999160767	-3.7509948177145
3.9969999790192	-3.7361282347866
4.0060000419617	-3.7218495151558
4.0149998664856	-3.7081725430997
4.0240001678467	-3.6951102315627
4.0329999923706	-3.6826761014419
4.0419998168945	-3.6708846067294
4.0510001182556	-3.6597469858847
4.0599999427795	-3.6492771388746
4.0689997673035	-3.6394884373372
4.0780000686646	-3.6303883364685
4.0869998931885	-3.6219911184732
4.0960001945496	-3.6143064682908
4.1050000190735	-3.6073465891926
4.1139998435974	-3.6011198370938
4.1230001449585	-3.5956333579875
4.1319999694824	-3.5909003581891
4.1409997940063	-3.5869263821878
4.1500000953674	-3.5837221102461
4.1589999198914	-3.5812921291264
4.1680002212524	-3.5796451172097
4.1770000457764	-3.5787869813841
4.1859998703003	-3.5787231925957
4.1950001716614	-3.5794607788573
4.2039999961853	-3.5810036064605
4.2129998207092	-3.5833563735136
4.2220001220703	-3.5865234922603
4.2309999465942	-3.5905068661337
4.2399997711182	-3.5953102709882
4.2490000724792	-3.6009341728162
4.2579998970032	-3.6073838055838
4.2670001983643	-3.6146569451884
4.2760000228882	-3.6227543848749
4.2849998474121	-3.6316778228347
4.2940001487732	-3.6414229043826
4.3029999732971	-3.6519922082880
4.3119997978210	-3.6633812387267
4.3210000991821	-3.6755875854283
4.3299999237061	-3.6886092787404
4.3390002250671	-3.7024399846089
4.3480000495911	-3.7170771605484
4.3569998741150	-3.7325143627035
4.3660001754761	-3.7487463381979
4.3750000000000	-3.7657642327536
4.3839998245239	-3.7835643016728
4.3930001258850	-3.8021354800541
4.4019999504089	-3.8214704125137
4.4109997749329	-3.8415601042012
4.4200000762939	-3.8623939188961
4.4289999008179	-3.8839604409619
4.4380002021790	-3.9062490889644
4.4470000267029	-3.9292462605726
4.4559998512268	-3.9529412804503
4.4650001525879	-3.9773189270901
4.4739999771118	-4.0023664315941
4.4829998016357	-4.0280675723561
4.4920001029968	-4.0544079541315
4.5009999275208	-4.0813709416113
4.5100002288818	-4.1089396755896
4.5190000534058	-4.1370955666187
4.5279998779297	-4.1658223712687
4.5370001792908	-4.1951004064563
4.5460000038147	-4.2249100242820
4.5549998283386	-4.2552304351194
4.5640001296997	-4.2860446550195
4.5729999542236	-4.3173270387306
4.5819997787476	-4.3490596376455
4.5910000801086	-4.3812185585993
4.5999999046326	-4.4137812538702
4.6090002059937	-4.4467239595344
4.6180000305176	-4.4800254348478
4.6269998550415	-4.5136596989662
4.6360001564026	-4.5476014956089
4.6449999809265	-4.5818300461945
4.6539998054504	-4.6163144310567
4.6630001068115	-4.6510338923581
4.6719999313354	-4.6859603733838
4.6810002326965	-4.7210691625560
4.6900000572205	-4.7563327293657
4.6989998817444	-4.7917242531714
4.7080001831055	-4.8272185549298
4.7170000076294	-4.8627874413802
4.7259998321533	-4.8984050718129
4.7350001335144	-4.9340435315215
4.7439999580383	-4.9696768427685
4.7529997825623	-5.0052760061195
4.7620000839233	-5.0408160995938
4.7709999084473	-5.0762675440741
4.7800002098083	-5.1116080934016
4.7890000343323	-5.1468059166437
4.7979998588562	-5.1818367580946
4.8070001602173	-5.2166732742865
4.8159999847412	-5.2512903232514
4.8249998092651	-5.2856620297730
4.8340001106262	-5.3197626076317
4.8429999351501	-5.3535664210919
4.8520002365112	-5.3870485013656
4.8610000610352	-5.4201866491411
4.8699998855591	-5.4529540974461
4.8790001869202	-5.4853290627638
4.8880000114441	-5.5172879363776
4.8969998359680	-5.5488086199092
4.9060001373291	-5.5798706743783
4.9149999618530	-5.6104503779955
4.9239997863770	-5.6405295578664
4.9330000877380	-5.6700891791381
4.9419999122620	-5.6991083758422
4.9510002136230	-5.7275711754656
4.9600000381470	-5.7554579508013
4.9689998626709	-5.7827542298904
4.9780001640320	-5.8094438653110
4.9869999885559	-5.8355122243282
4.9959998130798	-5.8609458610951
5.0050001144409	-5.8857326931872
5.0139999389648	-5.9098597022721
5.0229997634888	-5.9333178439996
5.0320000648499	-5.9560976491878
5.0409998893738	-5.9781892254682
5.0500001907349	-5.9995865101950
5.0590000152588	-6.0202812735272
5.0679998397827	-6.0402699736885
5.0770001411438	-6.0595507003368
5.0859999656677	-6.0781172768569
5.0949997901917	-6.0959697598571
5.1040000915527	-6.1131061390137
5.1129999160767	-6.1295292989278
5.1220002174377	-6.1452398180250
5.1310000419617	-6.1602422357279
5.1399998664856	-6.1745391565301
5.1490001678467	-6.1881379541702
5.1579999923706	-6.2010439504660
5.1669998168945	-6.2132655821976
5.1760001182556	-6.2248122543826
5.1849999427795	-6.2356935301469
5.1939997673035	-6.2459213443545
5.2030000686646	-6.2555073029033
5.2119998931885	-6.2644661997134
5.2210001945496	-6.2728123983936
5.2300000190735	-6.2805600447070
5.2389998435974	-6.2877274890558
5.2480001449585	-6.2943319792167
5.2569999694824	-6.3003928056541
5.2659997940063	-6.3059272154678
5.2750000953674	-6.3109565444925
5.2839999198914	-6.3155044642907
5.2930002212524	-6.3195883461801
5.3020000457764	-6.3232331862143
5.3109998703003	-6.3264642207295
5.3200001716614	-6.3293035199230
5.3289999961853	-6.3317749954104
5.3379998207092	-6.3339051683882
5.3470001220703	-6.3357194519336
5.3559999465942	-6.3372441265620
5.3649997711182	-6.3385047612458
5.3740000724792	-6.3395291923947
5.3829998970032	-6.3403442809503
5.3920001983643	-6.3409781812159
5.4010000228882	-6.3414586024322
5.4099998474121	-6.3418137977907
5.4190001487732	-6.3420715831359
5.4279999732971	-6.3422584368536
5.4369997978210	-6.3424049984287
5.4460000991821	-6.3425373974474
5.4549999237061	-6.3426864566295
5.4640002250671	-6.3428770313481
5.4730000495911	-6.3431407857708
5.4819998741150	-6.3435024024457
5.4910001754761	-6.3439915741971
5.5000000000000	-6.3446336686466
5.5089998245239	-6.3454573939669
5.5180001258850	-6.3464901845453
5.5269999504089	-6.3477579286643
5.5359997749329	-6.3492852220739
5.5450000762939	-6.3511005715799
5.5539999008179	-6.3532283360047
5.5630002021790	-6.3556917816140
5.5720000267029	-6.3585177594165
5.5809998512268	-6.3617294738021
5.5900001525879	-6.3653504501575
5.5989999771118	-6.3694031963587
5.6079998016357	-6.3739106679542
5.6170001029968	-6.3788951218919
5.6259999275208	-6.3843775237402
5.6350002288818	-6.3903781176774
5.6440000534058	-6.3969184456025
5.6529998779297	-6.4040166782421
5.6620001792908	-6.4116926728802
5.6710000038147	-6.4199639247886
5.6799998283386	-6.4288485716950
5.6890001296997	-6.4383651531830
5.6979999542236	-6.4485265840023
5.7069997787476	-6.4593495018412
5.7160000801086	-6.4708513375698
5.7249999046326	-6.4830443753022
5.7340002059937	-6.4959418027129
5.7430000305176	-6.5095566204934
5.7519998550415	-6.5239005392398
5.7610001564026	-6.5389875190836
5.7699999809265	-6.5548263323412
5.7789998054504	-6.5714267760106
5.7880001068115	-6.5887973013623
5.7969999313354	-6.6069463029433
5.8060002326965	-6.6258839102679
5.8150000572205	-6.6456141240566
5.8239998817444	-6.6661461789386
5.8330001831055	-6.6874825236411
5.8420000076294	-6.7096283887087
5.8509998321533	-6.7325887452288
5.8600001335144	-6.7563644740862
5.8689999580383	-6.7809599175576
5.8779997825623	-6.8063766760322
5.8870000839233	-6.8326121638255
5.8959999084473	-6.8596703713617
5.9050002098083	-6.8875471391452
5.9140000343323	-6.9162427860502
5.9229998588562	-6.9457533539620
5.9320001602173	-6.9760765244879
5.9409999847412	-7.0072069613572
5.9499998092651	-7.0391391905065
5.9590001106262	-7.0718682459421
5.9679999351501	-7.1053869020819
5.9770002365112	-7.1396890693163
5.9860000610352	-7.1747647407936
5.9949998855591	-7.2106048549887
6.0040001869202	-7.2471995063532
6.0130000114441	-7.2845395958237
6.0219998359680	-7.3226107205568
6.0310001373291	-7.3614015882476
6.0399999618530	-7.4008984616112
6.0489997863770	-7.4410892968529
6.0580000877380	-7.4819563761897
6.0669999122620	-7.5234872470123
6.0760002136230	-7.5656618863389
6.0850000381470	-7.6084660096939
6.0939998626709	-7.6518803762843
6.1030001640320	-7.6958866749161
6.1119999885559	-7.7404654298073
6.1209998130798	-7.7855964550219
6.1300001144409	-7.8312597421889
6.1389999389648	-7.8774329728780
6.1479997634888	-7.9240948461631
6.1570000648499	-7.9712231161107
6.1659998893738	-8.0187935782478
6.1750001907349	-8.0667839953567
6.1840000152588	-8.1151691861370
6.1929998397827	-8.1639239633467
6.2020001411438	-8.2130251499626
6.2109999656677	-8.2624447314216
6.2199997901917	-8.3121590629235
6.2290000915527	-8.3621419470822
6.2379999160767	-8.4123640160665
6.2470002174377	-8.4628017330212
6.2560000419617	-8.5134285672037
6.2649998664856	-8.5642137428079
6.2740001678467	-8.6151339250408
6.2829999923706	-8.6661609909068
6.2919998168945	-8.7172679709935
6.3010001182556	-8.7684263102655
6.3099999427795	-8.8196113764157
6.3189997673035	-8.8707949385747
6.3280000686646	-8.9219521387200
6.3369998931885	-8.9730552900348
6.3460001945496	-9.0240789072600
6.3550000190735	-9.0749999690094
6.3639998435974	-9.1257900876482
6.3730001449585	-9.1764276353147
6.3819999694824	-9.2268885632444
6.3909997940063	-9.2771481426105
