#Parameters = {h=1.5; l=55; n=8.8; w=50; wp=3; x=15.3}
#"Frequency / GHz"	"S1,1 (164) [Magnitude / dB]"
#-----------------------------------------------
1.0000000000000	-0.47125136825937
1.0089999437332	-0.47537471430982
1.0180000066757	-0.48053946593071
1.0269999504089	-0.48675820030399
1.0360000133514	-0.49404701701203
1.0449999570847	-0.50241930896001
1.0540000200272	-0.51189143945488
1.0629999637604	-0.52247867812372
1.0720000267029	-0.53419402409811
1.0809999704361	-0.54705485840278
1.0900000333786	-0.56107740154468
1.0989999771118	-0.57627569283595
1.1080000400543	-0.59266746033657
1.1169999837875	-0.61026639739244
1.1260000467300	-0.62909172071329
1.1349999904633	-0.64915897109731
1.1440000534058	-0.67048467833333
1.1529999971390	-0.69308652434148
1.1619999408722	-0.71698195996830
1.1710000038147	-0.74218889917275
1.1799999475479	-0.76872376580430
1.1890000104904	-0.79660427432194
1.1979999542236	-0.82585102389613
1.2070000171661	-0.85648256110377
1.2159999608994	-0.88851527470087
1.2250000238419	-0.92197093883943
1.2339999675751	-0.95686541551858
1.2430000305176	-0.99322138074320
1.2519999742508	-1.0310573068872
1.2610000371933	-1.0703947926703
1.2699999809265	-1.1112504317232
1.2790000438690	-1.1536480942110
1.2879999876022	-1.1976083780483
1.2970000505447	-1.2431492351201
1.3059999942780	-1.2902945386491
1.3150000572205	-1.3390632696161
1.3240000009537	-1.3894800659507
1.3329999446869	-1.4415637514705
1.3420000076294	-1.4953402143365
1.3509999513626	-1.5508270699908
1.3600000143051	-1.6080485960168
1.3689999580383	-1.6670295861047
1.3780000209808	-1.7277891754367
1.3869999647141	-1.7903521341190
1.3960000276566	-1.8547409742824
1.4049999713898	-1.9209796810941
1.4140000343323	-1.9890912872944
1.4229999780655	-2.0591001212427
1.4320000410080	-2.1310280335494
1.4409999847412	-2.2049008371248
1.4500000476837	-2.2807421325622
1.4589999914169	-2.3585760842229
1.4680000543594	-2.4384278097843
1.4769999980927	-2.5203200356902
1.4859999418259	-2.6042799277837
1.4950000047684	-2.6903296652934
1.5039999485016	-2.7784974827350
1.5130000114441	-2.8688049507497
1.5219999551773	-2.9612822518757
1.5310000181198	-3.0559514796017
1.5399999618530	-3.1528378970087
1.5490000247955	-3.2519706046436
1.5579999685287	-3.3533740554827
1.5670000314713	-3.4570743798811
1.5759999752045	-3.5630975729035
1.5850000381470	-3.6714746259774
1.5939999818802	-3.7822287441055
1.6030000448227	-3.8953897043135
1.6119999885559	-4.0109848690855
1.6210000514984	-4.1290420840605
1.6299999952316	-4.2495904758761
1.6390000581741	-4.3726589346642
1.6480000019073	-4.4982778431744
1.6569999456406	-4.6264768476122
1.6660000085831	-4.7572878185440
1.6749999523163	-4.8907403412403
1.6840000152588	-5.0268656676410
1.6929999589920	-5.1656998300346
1.7020000219345	-5.3072717003607
1.7109999656677	-5.4516202397756
1.7200000286102	-5.5987777761135
1.7289999723434	-5.7487797673471
1.7380000352859	-5.9016644990267
1.7469999790192	-6.0574692516051
1.7560000419617	-6.2162339686498
1.7649999856949	-6.3779992321732
1.7740000486374	-6.5428056931716
1.7829999923706	-6.7106977317006
1.7920000553131	-6.8817207470860
1.8009999990463	-7.0559203990777
1.8099999427795	-7.2333436521248
1.8190000057220	-7.4140425619521
1.8279999494553	-7.5980689378137
1.8370000123978	-7.7854761434417
1.8459999561310	-7.9763225783826
1.8550000190735	-8.1706658709951
1.8639999628067	-8.3685682772499
1.8730000257492	-8.5700953063871
1.8819999694824	-8.7753126891001
1.8910000324249	-8.9842930747492
1.8999999761581	-9.1971111711499
1.9090000391006	-9.4138433523013
1.9179999828339	-9.6345712818833
1.9270000457764	-9.8593839301571
1.9359999895096	-10.088368666358
1.9450000524521	-10.321623604432
1.9539999961853	-10.559247203742
1.9630000591278	-10.801345719180
1.9720000028610	-11.048032792320
1.9809999465942	-11.299425677783
1.9900000095367	-11.555646669354
1.9989999532700	-11.816830652922
2.0079998970032	-12.083117716837
2.0169999599457	-12.354653655027
2.0260000228882	-12.631595418486
2.0350000858307	-12.914108150345
2.0439999103546	-13.202369058169
2.0529999732971	-13.496563785885
2.0620000362396	-13.796890645433
2.0710000991821	-14.103559130332
2.0799999237061	-14.416791181969
2.0889999866486	-14.736825292407
2.0980000495911	-15.063910092698
2.1070001125336	-15.398313645388
2.1159999370575	-15.740317157340
2.1250000000000	-16.090219520588
2.1340000629425	-16.448336460012
2.1429998874664	-16.815003565898
2.1519999504089	-17.190571101406
2.1610000133514	-17.575408032262
2.1700000762939	-17.969900811323
2.1789999008179	-18.374448965195
2.1879999637604	-18.789463718603
2.1970000267029	-19.215366832885
2.2060000896454	-19.652576361268
2.2149999141693	-20.101503562411
2.2239999771118	-20.562534616414
2.2330000400543	-21.036011755615
2.2420001029968	-21.522208466738
2.2509999275208	-22.021287472497
2.2599999904633	-22.533245680794
2.2690000534058	-23.057851257302
2.2780001163483	-23.594537305740
2.2869999408722	-24.142278219030
2.2960000038147	-24.699421124285
2.3050000667572	-25.263469101130
2.3139998912811	-25.830810638492
2.3229999542236	-26.396421382583
2.3320000171661	-26.953524766959
2.3410000801086	-27.493312123816
2.3499999046326	-28.004792105579
2.3589999675751	-28.474956292862
2.3680000305176	-28.889416725612
2.3770000934601	-29.233664579727
2.3859999179840	-29.494904494401
2.3949999809265	-29.664123787853
2.4040000438690	-29.737798694520
2.4130001068115	-29.718605048548
2.4219999313354	-29.614870426844
2.4309999942780	-29.438955853367
2.4400000572205	-29.205199324544
2.4489998817444	-28.928026848537
2.4579999446869	-28.620612882665
2.4670000076294	-28.294161416104
2.4760000705719	-27.957699218451
2.4849998950958	-27.618183625244
2.4939999580383	-27.280788643764
2.5030000209808	-26.949223245416
2.5120000839233	-26.626051750879
2.5209999084473	-26.312957623669
2.5299999713898	-26.010974893795
2.5390000343323	-25.720654998071
2.5480000972748	-25.442207642721
2.5569999217987	-25.175593378191
2.5659999847412	-24.920602522125
2.5750000476837	-24.676913379680
2.5840001106262	-24.444121925847
2.5929999351501	-24.221781995606
2.6019999980927	-24.009422340594
2.6110000610352	-23.806558848795
2.6199998855591	-23.612704829889
2.6289999485016	-23.427381973051
2.6380000114441	-23.250124961669
2.6470000743866	-23.080479914114
2.6559998989105	-22.918013838490
2.6649999618530	-22.762304736326
2.6740000247955	-22.612956311656
2.6830000877380	-22.469584089461
2.6919999122620	-22.331825244998
2.7009999752045	-22.199333292901
2.7100000381470	-22.071777439728
2.7190001010895	-21.948844629350
2.7279999256134	-21.830237382503
2.7369999885559	-21.715672398756
2.7460000514984	-21.604878207081
2.7550001144409	-21.497601090438
2.7639999389648	-21.393596981020
2.7730000019073	-21.292635962481
2.7820000648499	-21.194497493759
2.7909998893738	-21.098976003181
2.7999999523163	-21.005872235599
2.8090000152588	-20.914997467331
2.8180000782013	-20.826177849641
2.8269999027252	-20.739241551357
2.8359999656677	-20.654031844637
2.8450000286102	-20.570396017864
2.8540000915527	-20.488194809382
2.8629999160767	-20.407292484826
2.8719999790192	-20.327562919397
2.8810000419617	-20.248886157319
2.8900001049042	-20.171154318083
2.8989999294281	-20.094260215247
2.9079999923706	-20.018106596664
2.9170000553131	-19.942604388379
2.9260001182556	-19.867668088202
2.9349999427795	-19.793222087180
2.9440000057220	-19.719190924662
2.9530000686646	-19.645512967020
2.9619998931885	-19.572125502537
2.9709999561310	-19.498974208738
2.9800000190735	-19.426011173411
2.9890000820160	-19.353193829344
2.9979999065399	-19.280480920724
3.0069999694824	-19.207839378817
3.0160000324249	-19.135240586511
3.0250000953674	-19.062659998982
3.0339999198914	-18.990076685188
3.0429999828339	-18.917474722050
3.0520000457764	-18.844842694417
3.0610001087189	-18.772169832436
3.0699999332428	-18.699453799340
3.0789999961853	-18.626690524690
3.0880000591278	-18.553881845524
3.0969998836517	-18.481036886411
3.1059999465942	-18.408156083213
3.1150000095367	-18.335254070268
3.1240000724792	-18.262340806758
3.1329998970032	-18.189434298068
3.1419999599457	-18.116546979138
3.1510000228882	-18.043699923817
3.1600000858307	-17.970913396018
3.1689999103546	-17.898208096326
3.1779999732971	-17.825609357099
3.1870000362396	-17.753138696545
3.1960000991821	-17.680823382856
3.2049999237061	-17.608691074234
3.2139999866486	-17.536766150040
3.2230000495911	-17.465077883486
3.2320001125336	-17.393655193269
3.2409999370575	-17.322525622375
3.2500000000000	-17.251719815771
3.2590000629425	-17.181264515991
3.2679998874664	-17.111190012565
3.2769999504089	-17.041525312292
3.2860000133514	-16.972300030111
3.2950000762939	-16.903542453267
3.3039999008179	-16.835280528294
3.3129999637604	-16.767541065366
3.3220000267029	-16.700352557968
3.3310000896454	-16.633744745312
3.3399999141693	-16.567738926914
3.3489999771118	-16.502363538507
3.3580000400543	-16.437643451465
3.3670001029968	-16.373602625087
3.3759999275208	-16.310265079800
3.3849999904633	-16.247651021162
3.3940000534058	-16.185784271775
3.4030001163483	-16.124684784872
3.4119999408722	-16.064374578862
3.4210000038147	-16.004869886686
3.4300000667572	-15.946189207926
3.4389998912811	-15.888352716552
3.4479999542236	-15.831371993462
3.4570000171661	-15.775265150380
3.4660000801086	-15.720044858930
3.4749999046326	-15.665728187296
3.4839999675751	-15.612321287983
3.4930000305176	-15.559840792699
3.5020000934601	-15.508293252020
3.5109999179840	-15.457691970288
3.5199999809265	-15.408042841227
3.5290000438690	-15.359353339673
3.5380001068115	-15.311631126095
3.5469999313354	-15.264883630991
3.5559999942780	-15.219113551820
3.5650000572205	-15.174325467559
3.5739998817444	-15.130522473120
3.5829999446869	-15.087705807859
3.5920000076294	-15.045881085225
3.6010000705719	-15.005045232125
3.6099998950958	-14.965198928628
3.6189999580383	-14.926342880563
3.6280000209808	-14.888475979995
3.6370000839233	-14.851593414505
3.6459999084473	-14.815696488274
3.6549999713898	-14.780778289556
3.6640000343323	-14.746837119330
3.6730000972748	-14.713867215577
3.6819999217987	-14.681864177018
3.6909999847412	-14.650822508595
3.7000000476837	-14.620735142616
3.7090001106262	-14.591597631832
3.7179999351501	-14.563399144452
3.7269999980927	-14.536137593526
3.7360000610352	-14.509800065162
3.7449998855591	-14.484380564435
3.7539999485016	-14.459869249323
3.7630000114441	-14.436260988430
3.7720000743866	-14.413541640423
3.7809998989105	-14.391705778726
3.7899999618530	-14.370741528317
3.7990000247955	-14.350640302309
3.8080000877380	-14.331390906146
3.8169999122620	-14.312985280967
3.8259999752045	-14.295410784215
3.8350000381470	-14.278658878671
3.8440001010895	-14.262718022379
3.8529999256134	-14.247576172945
3.8619999885559	-14.233226594178
3.8710000514984	-14.219656653324
3.8800001144409	-14.206856970907
3.8889999389648	-14.194814089821
3.8980000019073	-14.183520245224
3.9070000648499	-14.172963532568
3.9159998893738	-14.163135029363
3.9249999523163	-14.154024235899
3.9340000152588	-14.145621125754
3.9430000782013	-14.137915195244
3.9519999027252	-14.130896484138
3.9609999656677	-14.124553800426
3.9700000286102	-14.118880892252
3.9790000915527	-14.113864762677
3.9879999160767	-14.109498679610
3.9969999790192	-14.105774722223
4.0060000419617	-14.102678985832
4.0149998664856	-14.100206711123
4.0240001678467	-14.098348275650
4.0329999923706	-14.097094577363
4.0419998168945	-14.096435910020
4.0510001182556	-14.096367048028
4.0599999427795	-14.096876889800
4.0689997673035	-14.097959205055
4.0780000686646	-14.099605817540
4.0869998931885	-14.101807722480
4.0960001945496	-14.104556549838
4.1050000190735	-14.107847374624
4.1139998435974	-14.111668190707
4.1230001449585	-14.116014266040
4.1319999694824	-14.120876632836
4.1409997940063	-14.126248148311
4.1500000953674	-14.132118774934
4.1589999198914	-14.138481881157
4.1680002212524	-14.145329655759
4.1770000457764	-14.152652195449
4.1859998703003	-14.160440934640
4.1950001716614	-14.168689007277
4.2039999961853	-14.177384693636
4.2129998207092	-14.186518514648
4.2220001220703	-14.196083152643
4.2309999465942	-14.206067174481
4.2399997711182	-14.216460271028
4.2490000724792	-14.227252175115
4.2579998970032	-14.238429460138
4.2670001983643	-14.249983739696
4.2760000228882	-14.261900553718
4.2849998474121	-14.274168273649
4.2940001487732	-14.286772302101
4.3029999732971	-14.299702683479
4.3119997978210	-14.312942066265
4.3210000991821	-14.326476834869
4.3299999237061	-14.340290861861
4.3390002250671	-14.354368640542
4.3480000495911	-14.368695418619
4.3569998741150	-14.383252944902
4.3660001754761	-14.398023915307
4.3750000000000	-14.412991033192
4.3839998245239	-14.428133673818
4.3930001258850	-14.443435318645
4.4019999504089	-14.458874930822
4.4109997749329	-14.474431969889
4.4200000762939	-14.490088562838
4.4289999008179	-14.505821524914
4.4380002021790	-14.521609826427
4.4470000267029	-14.537433445792
4.4559998512268	-14.553269253828
4.4650001525879	-14.569096323712
4.4739999771118	-14.584891223712
4.4829998016357	-14.600632663152
4.4920001029968	-14.616297619207
4.5009999275208	-14.631863426484
4.5100002288818	-14.647309141207
4.5190000534058	-14.662611775051
4.5279998779297	-14.677750401576
4.5370001792908	-14.692701064233
4.5460000038147	-14.707445462009
4.5549998283386	-14.721962250651
4.5640001296997	-14.736230905383
4.5729999542236	-14.750233788351
4.5819997787476	-14.763948850322
4.5910000801086	-14.777361938060
4.5999999046326	-14.790455119965
4.6090002059937	-14.803209604621
4.6180000305176	-14.815615353810
4.6269998550415	-14.827653429326
4.6360001564026	-14.839314871613
4.6449999809265	-14.850587400709
4.6539998054504	-14.861460583969
4.6630001068115	-14.871924493836
4.6719999313354	-14.881973308738
4.6810002326965	-14.891601642199
4.6900000572205	-14.900803659032
4.6989998817444	-14.909573681529
4.7080001831055	-14.917914976975
4.7170000076294	-14.925824454540
4.7259998321533	-14.933301548450
4.7350001335144	-14.940351816104
4.7439999580383	-14.946977891210
4.7529997825623	-14.953184933288
4.7620000839233	-14.958979491964
4.7709999084473	-14.964368941699
4.7800002098083	-14.969363160117
4.7890000343323	-14.973970733908
4.7979998588562	-14.978201713835
4.8070001602173	-14.982072455818
4.8159999847412	-14.985590085643
4.8249998092651	-14.988770654444
4.8340001106262	-14.991628734115
4.8429999351501	-14.994177622200
4.8520002365112	-14.996430887869
4.8610000610352	-14.998405262432
4.8699998855591	-15.000114760680
4.8790001869202	-15.001575691021
4.8880000114441	-15.002801248389
4.8969998359680	-15.003806477888
4.9060001373291	-15.004605099845
4.9149999618530	-15.005210174902
4.9239997863770	-15.005636411022
4.9330000877380	-15.005892947663
4.9419999122620	-15.005992602216
4.9510002136230	-15.005942858279
4.9600000381470	-15.005755179743
4.9689998626709	-15.005433027927
4.9780001640320	-15.004986320598
4.9869999885559	-15.004414448709
4.9959998130798	-15.003723135021
5.0050001144409	-15.002910352334
5.0139999389648	-15.001976010894
5.0229997634888	-15.000915799070
5.0320000648499	-14.999723365234
5.0409998893738	-14.998393468260
5.0500001907349	-14.996915033113
5.0590000152588	-14.995273381245
5.0679998397827	-14.993457113844
5.0770001411438	-14.991448851807
5.0859999656677	-14.989227744876
5.0949997901917	-14.986774201089
5.1040000915527	-14.984063094369
5.1129999160767	-14.981069139104
5.1220002174377	-14.977761795292
5.1310000419617	-14.974114168636
5.1399998664856	-14.970089590663
5.1490001678467	-14.965657241710
5.1579999923706	-14.960776334314
5.1669998168945	-14.955409980283
5.1760001182556	-14.949519529742
5.1849999427795	-14.943061660072
5.1939997673035	-14.935993225962
5.2030000686646	-14.928269769039
5.2119998931885	-14.919847599904
5.2210001945496	-14.910679239783
5.2300000190735	-14.900718110792
5.2389998435974	-14.889920080458
5.2480001449585	-14.878234753428
5.2569999694824	-14.865618723670
5.2659997940063	-14.852026354978
5.2750000953674	-14.837412053876
5.2839999198914	-14.821731383089
5.2930002212524	-14.804945406529
5.3020000457764	-14.787010811786
5.3109998703003	-14.767889993869
5.3200001716614	-14.747547011369
5.3289999961853	-14.725951304680
5.3379998207092	-14.703069674870
5.3470001220703	-14.678877241649
5.3559999465942	-14.653351783948
5.3649997711182	-14.626472652579
5.3740000724792	-14.598223933034
5.3829998970032	-14.568596716220
5.3920001983643	-14.537579804400
5.4010000228882	-14.505172474573
5.4099998474121	-14.471377783373
5.4190001487732	-14.436201759357
5.4279999732971	-14.399655621159
5.4369997978210	-14.361752815916
5.4460000991821	-14.322516326888
5.4549999237061	-14.281970302783
5.4640002250671	-14.240144455413
5.4730000495911	-14.197072290070
5.4819998741150	-14.152790109757
5.4910001754761	-14.107341884612
5.5000000000000	-14.060773449245
5.5089998245239	-14.013131912026
5.5180001258850	-13.964470904615
5.5269999504089	-13.914847127731
5.5359997749329	-13.864317595298
5.5450000762939	-13.812944520447
5.5539999008179	-13.760790142694
5.5630002021790	-13.707922180162
5.5720000267029	-13.654404488187
5.5809998512268	-13.600306935628
5.5900001525879	-13.545699096904
5.5989999771118	-13.490651373942
5.6079998016357	-13.435233671767
5.6170001029968	-13.379518658302
5.6259999275208	-13.323576141224
5.6350002288818	-13.267478605325
5.6440000534058	-13.211295600837
5.6529998779297	-13.155096224456
5.6620001792908	-13.098951191521
5.6710000038147	-13.042928630752
5.6799998283386	-12.987092599575
5.6890001296997	-12.931512401026
5.6979999542236	-12.876249690412
5.7069997787476	-12.821366782838
5.7160000801086	-12.766925415347
5.7249999046326	-12.712984334803
5.7340002059937	-12.659598750154
5.7430000305176	-12.606826204105
5.7519998550415	-12.554717653892
5.7610001564026	-12.503323598005
5.7699999809265	-12.452694357244
5.7789998054504	-12.402873801335
5.7880001068115	-12.353908821907
5.7969999313354	-12.305837728902
5.8060002326965	-12.258703087657
5.8150000572205	-12.212540982874
5.8239998817444	-12.167387814755
5.8330001831055	-12.123274023296
5.8420000076294	-12.080232019844
5.8509998321533	-12.038289695834
5.8600001335144	-11.997471495864
5.8689999580383	-11.957804862057
5.8779997825623	-11.919307207805
5.8870000839233	-11.882000470264
5.8959999084473	-11.845900173920
5.9050002098083	-11.811023664924
5.9140000343323	-11.777381477412
5.9229998588562	-11.744983305609
5.9320001602173	-11.713841348307
5.9409999847412	-11.683957226211
5.9499998092651	-11.655338945609
5.9590001106262	-11.627986647614
5.9679999351501	-11.601900750047
5.9770002365112	-11.577079268357
5.9860000610352	-11.553516248505
5.9949998855591	-11.531207194150
6.0040001869202	-11.510141434702
6.0130000114441	-11.490308329986
6.0219998359680	-11.471697911322
6.0310001373291	-11.454289765283
6.0399999618530	-11.438072831917
6.0489997863770	-11.423023662471
6.0580000877380	-11.409120855558
6.0669999122620	-11.396340456652
6.0760002136230	-11.384659265543
6.0850000381470	-11.374045920003
6.0939998626709	-11.364471244351
6.1030001640320	-11.355902174359
6.1119999885559	-11.348303574570
6.1209998130798	-11.341638010341
6.1300001144409	-11.335867823205
6.1389999389648	-11.330950391904
6.1479997634888	-11.326842568345
6.1570000648499	-11.323496181604
6.1659998893738	-11.320864522396
6.1750001907349	-11.318896306690
6.1840000152588	-11.317540134159
6.1929998397827	-11.316739813059
6.2020001411438	-11.316438445231
6.2109999656677	-11.316579926415
6.2199997901917	-11.317102221435
6.2290000915527	-11.317939643419
6.2379999160767	-11.319032131294
6.2470002174377	-11.320310705392
6.2560000419617	-11.321710524737
6.2649998664856	-11.323159025981
6.2740001678467	-11.324590281745
6.2829999923706	-11.325929214919
6.2919998168945	-11.327106203580
6.3010001182556	-11.328047177948
6.3099999427795	-11.328679796738
6.3189997673035	-11.328927439682
6.3280000686646	-11.328717980414
6.3369998931885	-11.327976423449
6.3460001945496	-11.326631454193
6.3550000190735	-11.324608914014
6.3639998435974	-11.321835384971
6.3730001449585	-11.318245063004
6.3819999694824	-11.313762194262
6.3909997940063	-11.308326252234
