#Parameters = {h=1.5; l=55; n=11.8; w=50; wp=3; x=16.8}
#"Frequency / GHz"	"S1,1 (284) [Magnitude / dB]"
#-----------------------------------------------
1.0000000000000	-0.32709943862911
1.0089999437332	-0.32870914602515
1.0180000066757	-0.33155430274322
1.0269999504089	-0.33564122034716
1.0360000133514	-0.34097742005700
1.0449999570847	-0.34756839254250
1.0540000200272	-0.35542490066225
1.0629999637604	-0.36455284884676
1.0720000267029	-0.37495853100271
1.0809999704361	-0.38665111278630
1.0900000333786	-0.39963772421301
1.0989999771118	-0.41392685216074
1.1080000400543	-0.42952563357923
1.1169999837875	-0.44644256396318
1.1260000467300	-0.46468512247345
1.1349999904633	-0.48426524587298
1.1440000534058	-0.50518714976508
1.1529999971390	-0.52746206538363
1.1619999408722	-0.55109812965734
1.1710000038147	-0.57610646365665
1.1799999475479	-0.60249606955665
1.1890000104904	-0.63027581362993
1.1979999542236	-0.65945491369188
1.2070000171661	-0.69004390969202
1.2159999608994	-0.72205345845041
1.2250000238419	-0.75549208172561
1.2339999675751	-0.79037323269179
1.2430000305176	-0.82670633630822
1.2519999742508	-0.86450266559352
1.2610000371933	-0.90377164873313
1.2699999809265	-0.94452872446678
1.2790000438690	-0.98677870331794
1.2879999876022	-1.0305401538131
1.2970000505447	-1.0758211570549
1.3059999942780	-1.1226348218739
1.3150000572205	-1.1709908086920
1.3240000009537	-1.2209051691383
1.3329999446869	-1.2723871290429
1.3420000076294	-1.3254518706717
1.3509999513626	-1.3801082089433
1.3600000143051	-1.4363730919312
1.3689999580383	-1.4942572939534
1.3780000209808	-1.5537733961920
1.3869999647141	-1.6149371023388
1.3960000276566	-1.6777580720930
1.4049999713898	-1.7422505200974
1.4140000343323	-1.8084302974476
1.4229999780655	-1.8763074871518
1.4320000410080	-1.9458974244674
1.4409999847412	-2.0172136350990
1.4500000476837	-2.0902693910331
1.4589999914169	-2.1650779880568
1.4680000543594	-2.2416545978772
1.4769999980927	-2.3200128589702
1.4859999418259	-2.4001658367935
1.4950000047684	-2.4821282546870
1.5039999485016	-2.5659147492588
1.5130000114441	-2.6515369711817
1.5219999551773	-2.7390123748052
1.5310000181198	-2.8283546808009
1.5399999618530	-2.9195759125068
1.5490000247955	-3.0126945472623
1.5579999685287	-3.1077223011077
1.5670000314713	-3.2046757648785
1.5759999752045	-3.3035696282014
1.5850000381470	-3.4044172855121
1.5939999818802	-3.5072359080813
1.6030000448227	-3.6120401151138
1.6119999885559	-3.7188469338137
1.6210000514984	-3.8276717187702
1.6299999952316	-3.9385287247380
1.6390000581741	-4.0514372247354
1.6480000019073	-4.1664110812890
1.6569999456406	-4.2834690359591
1.6660000085831	-4.4026278782526
1.6749999523163	-4.5239052945304
1.6840000152588	-4.6473193409201
1.6929999589920	-4.7728889806265
1.7020000219345	-4.9006305934203
1.7109999656677	-5.0305674870295
1.7200000286102	-5.1627185924018
1.7289999723434	-5.2971030625647
1.7380000352859	-5.4337431140417
1.7469999790192	-5.5726591944233
1.7560000419617	-5.7138772577603
1.7649999856949	-5.8574160832887
1.7740000486374	-6.0033027807701
1.7829999923706	-6.1515623470412
1.7920000553131	-6.3022200686650
1.8009999990463	-6.4553042168985
1.8099999427795	-6.6108412017144
1.8190000057220	-6.7688613098460
1.8279999494553	-6.9293953492852
1.8370000123978	-7.0924742483691
1.8459999561310	-7.2581304797909
1.8550000190735	-7.4264014068801
1.8639999628067	-7.5973222878089
1.8730000257492	-7.7709308578511
1.8819999694824	-7.9472667580771
1.8910000324249	-8.1263706156452
1.8999999761581	-8.3082884732343
1.9090000391006	-8.4930650169339
1.9179999828339	-8.6807508643742
1.9270000457764	-8.8713913389694
1.9359999895096	-9.0650453915366
1.9450000524521	-9.2617658417666
1.9539999961853	-9.4616114754006
1.9630000591278	-9.6646452388503
1.9720000028610	-9.8709328515365
1.9809999465942	-10.080542414665
1.9900000095367	-10.293546841014
1.9989999532700	-10.510020809045
2.0079998970032	-10.730048407783
2.0169999599457	-10.953711076521
2.0260000228882	-11.181102223894
2.0350000858307	-11.412313649285
2.0439999103546	-11.647446971029
2.0529999732971	-11.886608183652
2.0620000362396	-12.129908258736
2.0710000991821	-12.377467033659
2.0799999237061	-12.629409090751
2.0889999866486	-12.885866190266
2.0980000495911	-13.146979007864
2.1070001125336	-13.412894311144
2.1159999370575	-13.683771366609
2.1250000000000	-13.959771840095
2.1340000629425	-14.241073954562
2.1429998874664	-14.527863616049
2.1519999504089	-14.820332642670
2.1610000133514	-15.118688823734
2.1700000762939	-15.423151159782
2.1789999008179	-15.733946628192
2.1879999637604	-16.051317318833
2.1970000267029	-16.375513772480
2.2060000896454	-16.706798679782
2.2149999141693	-17.045447751863
2.2239999771118	-17.391742339739
2.2330000400543	-17.745974796929
2.2420001029968	-18.108442228141
2.2509999275208	-18.479439027336
2.2599999904633	-18.859262907731
2.2690000534058	-19.248193702352
2.2780001163483	-19.646497576420
2.2869999408722	-20.054400486402
2.2960000038147	-20.472078848471
2.3050000667572	-20.899634187859
2.3139998912811	-21.337057378880
2.3229999542236	-21.784195649877
2.3320000171661	-22.240687512415
2.3410000801086	-22.705897963937
2.3499999046326	-23.178828975196
2.3589999675751	-23.658001552195
2.3680000305176	-24.141318512303
2.3770000934601	-24.625901799381
2.3859999179840	-25.107902676753
2.3949999809265	-25.582314616487
2.4040000438690	-26.042807403940
2.4130001068115	-26.481644744237
2.4219999313354	-26.889738987411
2.4309999942780	-27.256960516182
2.4400000572205	-27.572736061948
2.4489998817444	-27.826996100789
2.4579999446869	-28.011339537428
2.4670000076294	-28.120219088692
2.4760000705719	-28.151811341144
2.4849998950958	-28.108328963641
2.4939999580383	-27.995641693058
2.5030000209808	-27.822353491161
2.5120000839233	-27.598606016126
2.5209999084473	-27.334932818054
2.5299999713898	-27.041342428042
2.5390000343323	-26.726758434154
2.5480000972748	-26.398732850829
2.5569999217987	-26.063416731923
2.5659999847412	-25.725652296915
2.5750000476837	-25.389145365431
2.5840001106262	-25.056653088371
2.5929999351501	-24.730164351649
2.6019999980927	-24.411069243833
2.6110000610352	-24.100297025596
2.6199998855591	-23.798411275019
2.6289999485016	-23.505724487013
2.6380000114441	-23.222338783539
2.6470000743866	-22.948220905922
2.6559998989105	-22.683230510405
2.6649999618530	-22.427158766822
2.6740000247955	-22.179739763834
2.6830000877380	-21.940682462148
2.6919999122620	-21.709673401108
2.7009999752045	-21.486391829564
2.7100000381470	-21.270510781181
2.7190001010895	-21.061709013856
2.7279999256134	-20.859669999489
2.7369999885559	-20.664082918772
2.7460000514984	-20.474652029816
2.7550001144409	-20.291090632236
2.7639999389648	-20.113120484648
2.7730000019073	-19.940479692782
2.7820000648499	-19.772916981179
2.7909998893738	-19.610191677244
2.7999999523163	-19.452074420865
2.8090000152588	-19.298352188052
2.8180000782013	-19.148815375246
2.8269999027252	-19.003266575463
2.8359999656677	-18.861524193552
2.8450000286102	-18.723407682571
2.8540000915527	-18.588752235895
2.8629999160767	-18.457395046461
2.8719999790192	-18.329188964675
2.8810000419617	-18.203985065844
2.8900001049042	-18.081651357875
2.8989999294281	-17.962055016682
2.9079999923706	-17.845073744778
2.9170000553131	-17.730590371850
2.9260001182556	-17.618491759974
2.9349999427795	-17.508674380878
2.9440000057220	-17.401034877920
2.9530000686646	-17.295477515725
2.9619998931885	-17.191911675946
2.9709999561310	-17.090248781826
2.9800000190735	-16.990405850320
2.9890000820160	-16.892304843992
2.9979999065399	-16.795868652709
3.0069999694824	-16.701027492160
3.0160000324249	-16.607710735619
3.0250000953674	-16.515852372340
3.0339999198914	-16.425392294872
3.0429999828339	-16.336270150811
3.0520000457764	-16.248428911654
3.0610001087189	-16.161814007467
3.0699999332428	-16.076375494451
3.0789999961853	-15.992063415834
3.0880000591278	-15.908830784622
3.0969998836517	-15.826633553682
3.1059999465942	-15.745428005181
3.1150000095367	-15.665173903684
3.1240000724792	-15.585834632123
3.1329998970032	-15.507372172585
3.1419999599457	-15.429752331807
3.1510000228882	-15.352940369555
3.1600000858307	-15.276907413835
3.1689999103546	-15.201623075530
3.1779999732971	-15.127056504057
3.1870000362396	-15.053185016846
3.1960000991821	-14.979981223017
3.2049999237061	-14.907421937120
3.2139999866486	-14.835484116678
3.2230000495911	-14.764147720873
3.2320001125336	-14.693391085425
3.2409999370575	-14.623198075524
3.2500000000000	-14.553549657528
3.2590000629425	-14.484429031404
3.2679998874664	-14.415822143668
3.2769999504089	-14.347715015306
3.2860000133514	-14.280095606860
3.2950000762939	-14.212949058815
3.3039999008179	-14.146267333042
3.3129999637604	-14.080038429374
3.3220000267029	-14.014253745799
3.3310000896454	-13.948906344704
3.3399999141693	-13.883986656820
3.3489999771118	-13.819489075590
3.3580000400543	-13.755407475771
3.3670001029968	-13.691739680981
3.3759999275208	-13.628476210143
3.3849999904633	-13.565617331123
3.3940000534058	-13.503159241213
3.4030001163483	-13.441099503945
3.4119999408722	-13.379434625116
3.4210000038147	-13.318166800640
3.4300000667572	-13.257293247602
3.4389998912811	-13.196816325334
3.4479999542236	-13.136733480226
3.4570000171661	-13.077049328825
3.4660000801086	-13.017760345941
3.4749999046326	-12.958874050978
3.4839999675751	-12.900387288916
3.4930000305176	-12.842307729015
3.5020000934601	-12.784634194274
3.5109999179840	-12.727371670074
3.5199999809265	-12.670523834920
3.5290000438690	-12.614095070680
3.5380001068115	-12.558087132690
3.5469999313354	-12.502509226457
3.5559999942780	-12.447360499415
3.5650000572205	-12.392646629913
3.5739998817444	-12.338375100637
3.5829999446869	-12.284547514073
3.5920000076294	-12.231171984183
3.6010000705719	-12.178251318239
3.6099998950958	-12.125791633561
3.6189999580383	-12.073798862177
3.6280000209808	-12.022276932104
3.6370000839233	-11.971231336873
3.6459999084473	-11.920667945055
3.6549999713898	-11.870591995599
3.6640000343323	-11.821007182263
3.6730000972748	-11.771920618592
3.6819999217987	-11.723336408844
3.6909999847412	-11.675259044002
3.7000000476837	-11.627693258399
3.7090001106262	-11.580645081918
3.7179999351501	-11.534117919306
3.7269999980927	-11.488117179357
3.7360000610352	-11.442645557599
3.7449998855591	-11.397710086780
3.7539999485016	-11.353311012848
3.7630000114441	-11.309455769635
3.7720000743866	-11.266144785767
3.7809998989105	-11.223383941184
3.7899999618530	-11.181173009877
3.7990000247955	-11.139518719771
3.8080000877380	-11.098422226655
3.8169999122620	-11.057886524134
3.8259999752045	-11.017912299326
3.8350000381470	-10.978503432749
3.8440001010895	-10.939660559773
3.8529999256134	-10.901384495721
3.8619999885559	-10.863676854254
3.8710000514984	-10.826540945928
3.8800001144409	-10.789975871478
3.8889999389648	-10.753979837787
3.8980000019073	-10.718556436364
3.9070000648499	-10.683701994942
3.9159998893738	-10.649418197064
3.9249999523163	-10.615706696535
3.9340000152588	-10.582561006735
3.9430000782013	-10.549985398751
3.9519999027252	-10.517972466855
3.9609999656677	-10.486525094323
3.9700000286102	-10.455639851159
3.9790000915527	-10.425313628471
3.9879999160767	-10.395542730699
3.9969999790192	-10.366326599244
4.0060000419617	-10.337660537321
4.0149998664856	-10.309539243518
4.0240001678467	-10.281961263263
4.0329999923706	-10.254920922905
4.0419998168945	-10.228413308056
4.0510001182556	-10.202435608261
4.0599999427795	-10.176981408468
4.0689997673035	-10.152044412323
4.0780000686646	-10.127619378807
4.0869998931885	-10.103700588174
4.0960001945496	-10.080280717877
4.1050000190735	-10.057355893117
4.1139998435974	-10.034915412461
4.1230001449585	-10.012955358545
4.1319999694824	-9.9914651577226
4.1409997940063	-9.9704417941307
4.1500000953674	-9.9498722402026
4.1589999198914	-9.9297492712205
4.1680002212524	-9.9100661166383
4.1770000457764	-9.8908137301268
4.1859998703003	-9.8719814424050
4.1950001716614	-9.8535604580798
4.2039999961853	-9.8355423460931
4.2129998207092	-9.8179159202497
4.2220001220703	-9.8006720740199
4.2309999465942	-9.7838003202171
4.2399997711182	-9.7672884084593
4.2490000724792	-9.7511292092806
4.2579998970032	-9.7353104479564
4.2670001983643	-9.7198183852384
4.2760000228882	-9.7046447009043
4.2849998474121	-9.6897761327607
4.2940001487732	-9.6752028344482
4.3029999732971	-9.6609118726765
4.3119997978210	-9.6468905733894
4.3210000991821	-9.6331285759603
4.3299999237061	-9.6196124337115
4.3390002250671	-9.6063303510758
4.3480000495911	-9.5932686419795
4.3569998741150	-9.5804161289734
4.3660001754761	-9.5677611120862
4.3750000000000	-9.5552882276581
4.3839998245239	-9.5429862823054
4.3930001258850	-9.5308425906838
4.4019999504089	-9.5188435771519
4.4109997749329	-9.5069757497556
4.4200000762939	-9.4952292378843
4.4289999008179	-9.4835883249919
4.4380002021790	-9.4720413733153
4.4470000267029	-9.4605757279367
4.4559998512268	-9.4491782488708
4.4650001525879	-9.4378366623187
4.4739999771118	-9.4265395796116
4.4829998016357	-9.4152737274828
4.4920001029968	-9.4040264141654
4.5009999275208	-9.3927838420912
4.5100002288818	-9.3815380727945
4.5190000534058	-9.3702758314511
4.5279998779297	-9.3589837355297
4.5370001792908	-9.3476522840253
4.5460000038147	-9.3362702570827
4.5549998283386	-9.3248273142565
4.5640001296997	-9.3133108701532
4.5729999542236	-9.3017135220761
4.5819997787476	-9.2900216120952
4.5910000801086	-9.2782293179914
4.5999999046326	-9.2663254810387
4.6090002059937	-9.2543004653074
4.6180000305176	-9.2421463552951
4.6269998550415	-9.2298547400313
4.6360001564026	-9.2174168040967
4.6449999809265	-9.2048270678436
4.6539998054504	-9.1920768811620
4.6630001068115	-9.1791588602791
4.6719999313354	-9.1660684274062
4.6810002326965	-9.1527978674914
4.6900000572205	-9.1393437872428
4.6989998817444	-9.1256981711168
4.7080001831055	-9.1118594898411
4.7170000076294	-9.0978215434885
4.7259998321533	-9.0835808459036
4.7350001335144	-9.0691343473989
4.7439999580383	-9.0544805893296
4.7529997825623	-9.0396165506361
4.7620000839233	-9.0245374743096
4.7709999084473	-9.0092462078726
4.7800002098083	-8.9937394871746
4.7890000343323	-8.9780168195246
4.7979998588562	-8.9620785354607
4.8070001602173	-8.9459241760176
4.8159999847412	-8.9295562356657
4.8249998092651	-8.9129746346882
4.8340001106262	-8.8961808456948
4.8429999351501	-8.8791777913076
4.8520002365112	-8.8619674561031
4.8610000610352	-8.8445537760991
4.8699998855591	-8.8269383311221
4.8790001869202	-8.8091252191044
4.8880000114441	-8.7911197442147
4.8969998359680	-8.7729269155721
4.9060001373291	-8.7545490287365
4.9149999618530	-8.7359913690582
4.9239997863770	-8.7172614185920
4.9330000877380	-8.6983630278160
4.9419999122620	-8.6793051303086
4.9510002136230	-8.6600899869459
4.9600000381470	-8.6407271655193
4.9689998626709	-8.6212216731022
4.9780001640320	-8.6015835434718
4.9869999885559	-8.5818183113338
4.9959998130798	-8.5619327197737
5.0050001144409	-8.5419371443298
5.0139999389648	-8.5218380745999
5.0229997634888	-8.5016420887017
5.0320000648499	-8.4813603341056
5.0409998893738	-8.4610007486087
5.0500001907349	-8.4405716960699
5.0590000152588	-8.4200823786548
5.0679998397827	-8.3995413532758
5.0770001411438	-8.3789586107043
5.0859999656677	-8.3583403899902
5.0949997901917	-8.3376999587335
5.1040000915527	-8.3170445900498
5.1129999160767	-8.2963844302554
5.1220002174377	-8.2757276255715
5.1310000419617	-8.2550850356585
5.1399998664856	-8.2344665493109
5.1490001678467	-8.2138805515939
5.1579999923706	-8.1933382614300
5.1669998168945	-8.1728472941133
5.1760001182556	-8.1524185294471
5.1849999427795	-8.1320597914629
5.1939997673035	-8.1117839162270
5.2030000686646	-8.0915982549618
5.2119998931885	-8.0715139588472
5.2210001945496	-8.0515377233843
5.2300000190735	-8.0316815489713
5.2389998435974	-8.0119551095992
5.2480001449585	-7.9923659219677
5.2569999694824	-7.9729237113270
5.2659997940063	-7.9536379294913
5.2750000953674	-7.9345188367143
5.2839999198914	-7.9155740908026
5.2930002212524	-7.8968146555570
5.3020000457764	-7.8782470964506
5.3109998703003	-7.8598814482790
5.3200001716614	-7.8417265265326
5.3289999961853	-7.8237912921391
5.3379998207092	-7.8060831520519
5.3470001220703	-7.7886105687853
5.3559999465942	-7.7713841861685
5.3649997711182	-7.7544117655191
5.3740000724792	-7.7376987572894
5.3829998970032	-7.7212549675552
5.3920001983643	-7.7050889410722
5.4010000228882	-7.6892083451812
5.4099998474121	-7.6736212884739
5.4190001487732	-7.6583343627532
5.4279999732971	-7.6433573351214
5.4369997978210	-7.6286940115182
5.4460000991821	-7.6143542360626
5.4549999237061	-7.6003434255822
5.4640002250671	-7.5866716071525
5.4730000495911	-7.5733418116989
5.4819998741150	-7.5603642853157
5.4910001754761	-7.5477454503162
5.5000000000000	-7.5354882659651
5.5089998245239	-7.5236047549250
5.5180001258850	-7.5120959041724
5.5269999504089	-7.5009716833705
5.5359997749329	-7.4902359885093
5.5450000762939	-7.4798967867351
5.5539999008179	-7.4699580830655
5.5630002021790	-7.4604255333265
5.5720000267029	-7.4513059040774
5.5809998512268	-7.4426041663314
5.5900001525879	-7.4343249982843
5.5989999771118	-7.4264753297974
5.6079998016357	-7.4190567268238
5.6170001029968	-7.4120783887560
5.6259999275208	-7.4055418318334
5.6350002288818	-7.3994536105069
5.6440000534058	-7.3938151285814
5.6529998779297	-7.3886344390774
5.6620001792908	-7.3839132170551
5.6710000038147	-7.3796560919134
5.6799998283386	-7.3758660968446
5.6890001296997	-7.3725493599612
5.6979999542236	-7.3697073335561
5.7069997787476	-7.3673420912482
5.7160000801086	-7.3654595917165
5.7249999046326	-7.3640612138060
5.7340002059937	-7.3631498858932
5.7430000305176	-7.3627286817099
5.7519998550415	-7.3627988326944
5.7610001564026	-7.3633645404333
5.7699999809265	-7.3644249013899
5.7789998054504	-7.3659855264906
5.7880001068115	-7.3680463348741
5.7969999313354	-7.3706057948085
5.8060002326965	-7.3736688929031
5.8150000572205	-7.3772354768050
5.8239998817444	-7.3813055790186
5.8330001831055	-7.3858807366223
5.8420000076294	-7.3909603003235
5.8509998321533	-7.3965464425523
5.8600001335144	-7.4026350424230
5.8689999580383	-7.4092285267744
5.8779997825623	-7.4163245019945
5.8870000839233	-7.4239240457377
5.8959999084473	-7.4320243003090
5.9050002098083	-7.4406227218738
5.9140000343323	-7.4497198262335
5.9229998588562	-7.4593113943657
5.9320001602173	-7.4693971489783
5.9409999847412	-7.4799708497298
5.9499998092651	-7.4910331224175
5.9590001106262	-7.5025780120985
5.9679999351501	-7.5146024231021
5.9770002365112	-7.5271015463717
5.9860000610352	-7.5400719058209
5.9949998855591	-7.5535071287259
6.0040001869202	-7.5674047706604
6.0130000114441	-7.5817563913835
6.0219998359680	-7.5965585827415
6.0310001373291	-7.6118014180301
6.0399999618530	-7.6274800207598
6.0489997863770	-7.6435886007194
6.0580000877380	-7.6601163047768
6.0669999122620	-7.6770577234033
6.0760002136230	-7.6944031091690
6.0850000381470	-7.7121446927012
6.0939998626709	-7.7302700894136
6.1030001640320	-7.7487727292042
6.1119999885559	-7.7676399958126
6.1209998130798	-7.7868621068905
6.1300001144409	-7.8064273668270
6.1389999389648	-7.8263243686505
6.1479997634888	-7.8465391582141
6.1570000648499	-7.8670625712323
6.1659998893738	-7.8878761891215
6.1750001907349	-7.9089710488602
6.1840000152588	-7.9303299839936
6.1929998397827	-7.9519391406425
6.2020001411438	-7.9737813414556
6.2109999656677	-7.9958431089852
6.2199997901917	-8.0181070532944
6.2290000915527	-8.0405568025037
6.2379999160767	-8.0631736402341
6.2470002174377	-8.0859401155973
6.2560000419617	-8.1088384117593
6.2649998664856	-8.1318493089308
6.2740001678467	-8.1549522292396
6.2829999923706	-8.1781295636440
6.2919998168945	-8.2013586112131
6.3010001182556	-8.2246200635713
6.3099999427795	-8.2478903834279
6.3189997673035	-8.2711490128510
6.3280000686646	-8.2943743487893
6.3369998931885	-8.3175426323061
6.3460001945496	-8.3406324256354
6.3550000190735	-8.3636186939673
6.3639998435974	-8.3864774162813
6.3730001449585	-8.4091842471037
6.3819999694824	-8.4317172878947
6.3909997940063	-8.4540482421482
