#Parameters = {h=1.5; l=55; n=16.8; w=50; wp=3; x=17.3}
#"Frequency / GHz"	"S1,1 (332) [Magnitude / dB]"
#-----------------------------------------------
1.0000000000000	-0.37011395053148
1.0089999437332	-0.37269743941560
1.0180000066757	-0.37638745109385
1.0269999504089	-0.38119538231759
1.0360000133514	-0.38712936777425
1.0449999570847	-0.39419913407081
1.0540000200272	-0.40241292872027
1.0629999637604	-0.41178030741113
1.0720000267029	-0.42231193249142
1.0809999704361	-0.43401504190772
1.0900000333786	-0.44690187026838
1.0989999771118	-0.46097955104864
1.1080000400543	-0.47625921047260
1.1169999837875	-0.49274946547845
1.1260000467300	-0.51046151627685
1.1349999904633	-0.52940593432952
1.1440000534058	-0.54959290879174
1.1529999971390	-0.57103329157918
1.1619999408722	-0.59373559247818
1.1710000038147	-0.61771446788678
1.1799999475479	-0.64297775824115
1.1890000104904	-0.66953722191672
1.1979999542236	-0.69740564384004
1.2070000171661	-0.72659287082632
1.2159999608994	-0.75711173172161
1.2250000238419	-0.78897388651261
1.2339999675751	-0.82219299418327
1.2430000305176	-0.85677877611106
1.2519999742508	-0.89274427684879
1.2610000371933	-0.93010357652322
1.2699999809265	-0.96886830605708
1.2790000438690	-1.0090521800419
1.2879999876022	-1.0506650827255
1.2970000505447	-1.0937243160664
1.3059999942780	-1.1382430269144
1.3150000572205	-1.1842328543251
1.3240000009537	-1.2317080615843
1.3329999446869	-1.2806825020444
1.3420000076294	-1.3311697703497
1.3509999513626	-1.3831849392107
1.3600000143051	-1.4367421090528
1.3689999580383	-1.4918538117395
1.3780000209808	-1.5485371616166
1.3869999647141	-1.6068054356092
1.3960000276566	-1.6666737645340
1.4049999713898	-1.7281557830971
1.4140000343323	-1.7912674158956
1.4229999780655	-1.8560242963386
1.4320000410080	-1.9224397680504
1.4409999847412	-1.9905303566757
1.4500000476837	-2.0603114697457
1.4589999914169	-2.1317972897729
1.4680000543594	-2.2050047558014
1.4769999980927	-2.2799482264286
1.4859999418259	-2.3566444742416
1.4950000047684	-2.4351078975431
1.5039999485016	-2.5153549789958
1.5130000114441	-2.5974026350434
1.5219999551773	-2.6812669946581
1.5310000181198	-2.7669618422713
1.5399999618530	-2.8545051377958
1.5490000247955	-2.9439160072992
1.5579999685287	-3.0352061126659
1.5670000314713	-3.1283951308191
1.5759999752045	-3.2234992952853
1.5850000381470	-3.3205350081511
1.5939999818802	-3.4195199056951
1.6030000448227	-3.5204729227453
1.6119999885559	-3.6234109726875
1.6210000514984	-3.7283517250220
1.6299999952316	-3.8353112187021
1.6390000581741	-3.9443108863411
1.6480000019073	-4.0553687438030
1.6569999456406	-4.1685030121934
1.6660000085831	-4.2837334504924
1.6749999523163	-4.4010795891888
1.6840000152588	-4.5205643117917
1.6929999589920	-4.6422036919162
1.7020000219345	-4.7660221453572
1.7109999656677	-4.8920399397778
1.7200000286102	-5.0202812071416
1.7289999723434	-5.1507650649488
1.7380000352859	-5.2835184992773
1.7469999790192	-5.4185634119458
1.7560000419617	-5.5559256622983
1.7649999856949	-5.6956311566244
1.7740000486374	-5.8377061240418
1.7829999923706	-5.9821760194159
1.7920000553131	-6.1290721139145
1.8009999990463	-6.2784228353668
1.8099999427795	-6.4302572451197
1.8190000057220	-6.5846076946984
1.8279999494553	-6.7415068037072
1.8370000123978	-6.9009902622473
1.8459999561310	-7.0630916241954
1.8550000190735	-7.2278464159058
1.8639999628067	-7.3952951847965
1.8730000257492	-7.5654794777326
1.8819999694824	-7.7384377467459
1.8910000324249	-7.9142152815207
1.8999999761581	-8.0928573927360
1.9090000391006	-8.2744115298381
1.9179999828339	-8.4589271709716
1.9270000457764	-8.6464556220093
1.9359999895096	-8.8370526839713
1.9450000524521	-9.0307736645422
1.9539999961853	-9.2276789653407
1.9630000591278	-9.4278305122344
1.9720000028610	-9.6312916615414
1.9809999465942	-9.8381336391527
1.9900000095367	-10.048423708720
1.9989999532700	-10.262239258205
2.0079998970032	-10.479657280061
2.0169999599457	-10.700755778524
2.0260000228882	-10.925625146858
2.0350000858307	-11.154350383892
2.0439999103546	-11.387025579003
2.0529999732971	-11.623747709855
2.0620000362396	-11.864614491555
2.0710000991821	-12.109733890695
2.0799999237061	-12.359211273568
2.0889999866486	-12.613160896107
2.0980000495911	-12.871698831435
2.1070001125336	-13.134944100411
2.1159999370575	-13.403020561802
2.1250000000000	-13.676054833180
2.1340000629425	-13.954172427988
2.1429998874664	-14.237503761659
2.1519999504089	-14.526181571973
2.1610000133514	-14.820328344018
2.1700000762939	-15.120073802471
2.1789999008179	-15.425535303208
2.1879999637604	-15.736824890101
2.1970000267029	-16.054041528466
2.2060000896454	-16.377267239620
2.2149999141693	-16.706560936161
2.2239999771118	-17.041950604118
2.2330000400543	-17.383428368656
2.2420001029968	-17.730929616657
2.2509999275208	-18.084331589933
2.2599999904633	-18.443426016759
2.2690000534058	-18.807902246367
2.2780001163483	-19.177325202970
2.2869999408722	-19.551097872697
2.2960000038147	-19.928435411731
2.3050000667572	-20.308320067319
2.3139998912811	-20.689451559631
2.3229999542236	-21.070202760143
2.3320000171661	-21.448564948532
2.3410000801086	-21.822100326072
2.3499999046326	-22.187896189575
2.3589999675751	-22.542543219605
2.3680000305176	-22.882140726722
2.3770000934601	-23.202347328358
2.3859999179840	-23.498482853770
2.3949999809265	-23.765706326458
2.4040000438690	-23.999262216945
2.4130001068115	-24.194780887593
2.4219999313354	-24.348611356579
2.4309999942780	-24.458141231548
2.4400000572205	-24.522042621421
2.4489998817444	-24.540408496717
2.4579999446869	-24.514734533918
2.4670000076294	-24.447770612463
2.4760000705719	-24.343267549962
2.4849998950958	-24.205641709418
2.4939999580383	-24.039652813390
2.5030000209808	-23.850105070743
2.5120000839233	-23.641608166860
2.5209999084473	-23.418422319193
2.5299999713898	-23.184348768867
2.5390000343323	-22.942698692948
2.5480000972748	-22.696283978752
2.5569999217987	-22.447453859196
2.5659999847412	-22.198130773462
2.5750000476837	-21.949865145124
2.5840001106262	-21.703883737435
2.5929999351501	-21.461144427819
2.6019999980927	-21.222375049180
2.6110000610352	-20.988120490580
2.6199998855591	-20.758770167007
2.6289999485016	-20.534592518906
2.6380000114441	-20.315755555921
2.6470000743866	-20.102348076665
2.6559998989105	-19.894398943100
2.6649999618530	-19.691884850783
2.6740000247955	-19.494747294598
2.6830000877380	-19.302899217626
2.6919999122620	-19.116228807076
2.7009999752045	-18.934613338090
2.7100000381470	-18.757912218710
2.7190001010895	-18.585982148641
2.7279999256134	-18.418671050933
2.7369999885559	-18.255828433684
2.7460000514984	-18.097299597123
2.7550001144409	-17.942931562760
2.7639999389648	-17.792573530794
2.7730000019073	-17.646075483600
2.7820000648499	-17.503294355697
2.7909998893738	-17.364083847772
2.7999999523163	-17.228307088692
2.8090000152588	-17.095831209843
2.8180000782013	-16.966524304904
2.8269999027252	-16.840259953800
2.8359999656677	-16.716918958700
2.8450000286102	-16.596381622300
2.8540000915527	-16.478533860642
2.8629999160767	-16.363269088200
2.8719999790192	-16.250479252769
2.8810000419617	-16.140066157725
2.8900001049042	-16.031928441226
2.8989999294281	-15.925975872567
2.9079999923706	-15.822118044131
2.9170000553131	-15.720264307350
2.9260001182556	-15.620334303821
2.9349999427795	-15.522246803106
2.9440000057220	-15.425927139072
2.9530000686646	-15.331297510239
2.9619998931885	-15.238288033239
2.9709999561310	-15.146829535671
2.9800000190735	-15.056857418489
2.9890000820160	-14.968307020019
2.9979999065399	-14.881117968425
3.0069999694824	-14.795231075713
3.0160000324249	-14.710590161830
3.0250000953674	-14.627141685989
3.0339999198914	-14.544835669563
3.0429999828339	-14.463618025302
3.0520000457764	-14.383444072964
3.0610001087189	-14.304266361514
3.0699999332428	-14.226041427617
3.0789999961853	-14.148727793657
3.0880000591278	-14.072284333486
3.0969998836517	-13.996672644445
3.1059999465942	-13.921854653319
3.1150000095367	-13.847797134139
3.1240000724792	-13.774464115049
3.1329998970032	-13.701825479176
3.1419999599457	-13.629847825094
3.1510000228882	-13.558504946558
3.1600000858307	-13.487766385009
3.1689999103546	-13.417607338571
3.1779999732971	-13.348001578820
3.1870000362396	-13.278926102546
3.1960000991821	-13.210358479632
3.2049999237061	-13.142277439171
3.2139999866486	-13.074663219242
3.2230000495911	-13.007497830426
3.2320001125336	-12.940761229967
3.2409999370575	-12.874440829679
3.2500000000000	-12.808518307165
3.2590000629425	-12.742980087953
3.2679998874664	-12.677816014357
3.2769999504089	-12.613010351257
3.2860000133514	-12.548554225640
3.2950000762939	-12.484436593348
3.3039999008179	-12.420650365681
3.3129999637604	-12.357185786984
3.3220000267029	-12.294035871117
3.3310000896454	-12.231196380718
3.3399999141693	-12.168659681896
3.3489999771118	-12.106422142317
3.3580000400543	-12.044480438299
3.3670001029968	-11.982831236203
3.3759999275208	-11.921471739559
3.3849999904633	-11.860401581687
3.3940000534058	-11.799619474264
3.4030001163483	-11.739123817413
3.4119999408722	-11.678917051046
3.4210000038147	-11.619002278782
3.4300000667572	-11.559376655225
3.4389998912811	-11.500044885050
3.4479999542236	-11.441009365514
3.4570000171661	-11.382271344013
3.4660000801086	-11.323837709306
3.4749999046326	-11.265711494489
3.4839999675751	-11.207896712707
3.4930000305176	-11.150397608969
3.5020000934601	-11.093219189800
3.5109999179840	-11.036367976244
3.5199999809265	-10.979849382643
3.5290000438690	-10.923668160658
3.5380001068115	-10.867833330973
3.5469999313354	-10.812348869659
3.5559999942780	-10.757221358046
3.5650000572205	-10.702457904200
3.5739998817444	-10.648065291011
3.5829999446869	-10.594049996650
3.5920000076294	-10.540420414075
3.6010000705719	-10.487183217844
3.6099998950958	-10.434343120734
3.6189999580383	-10.381910162434
3.6280000209808	-10.329890820329
3.6370000839233	-10.278290400958
3.6459999084473	-10.227118542508
3.6549999713898	-10.176379232331
3.6640000343323	-10.126081600959
3.6730000972748	-10.076230019045
3.6819999217987	-10.026834902173
3.6909999847412	-9.9778999136962
3.7000000476837	-9.9294309504579
3.7090001106262	-9.8814348688510
3.7179999351501	-9.8339195695745
3.7269999980927	-9.7868883424531
3.7360000610352	-9.7403489496916
3.7449998855591	-9.6943062781430
3.7539999485016	-9.6487637086980
3.7630000114441	-9.6037293738266
3.7720000743866	-9.5592055341122
3.7809998989105	-9.5151993432065
3.7899999618530	-9.4717131412971
3.7990000247955	-9.4287503417368
3.8080000877380	-9.3863183728777
3.8169999122620	-9.3444167007819
3.8259999752045	-9.3030532466035
3.8350000381470	-9.2622266035686
3.8440001010895	-9.2219428081642
3.8529999256134	-9.1822020962173
3.8619999885559	-9.1430093315901
3.8710000514984	-9.1043652659366
3.8800001144409	-9.0662710189772
3.8889999389648	-9.0287281253339
3.8980000019073	-8.9917396553934
3.9070000648499	-8.9553037148767
3.9159998893738	-8.9194241484990
3.9249999523163	-8.8840996516921
3.9340000152588	-8.8493295221480
3.9430000782013	-8.8151159096033
3.9519999027252	-8.7814584372111
3.9609999656677	-8.7483512887818
3.9700000286102	-8.7158006539080
3.9790000915527	-8.6838002221765
3.9879999160767	-8.6523499530956
3.9969999790192	-8.6214479614032
4.0060000419617	-8.5910938984764
4.0149998664856	-8.5612830818253
4.0240001678467	-8.5320132272260
4.0329999923706	-8.5032821998955
4.0419998168945	-8.4750868373341
4.0510001182556	-8.4474237642459
4.0599999427795	-8.4202885684785
4.0689997673035	-8.3936790315816
4.0780000686646	-8.3675888010674
4.0869998931885	-8.3420156231257
4.0960001945496	-8.3169528717798
4.1050000190735	-8.2923967434543
4.1139998435974	-8.2683419336357
4.1230001449585	-8.2447833236634
4.1319999694824	-8.2217147638805
4.1409997940063	-8.1991306494012
4.1500000953674	-8.1770259614098
4.1589999198914	-8.1553925427990
4.1680002212524	-8.1342257478314
4.1770000457764	-8.1135176113997
4.1859998703003	-8.0932615145691
4.1950001716614	-8.0734513816343
4.2039999961853	-8.0540789329473
4.2129998207092	-8.0351357590806
4.2220001220703	-8.0166165272469
4.2309999465942	-7.9985122963258
4.2399997711182	-7.9808133740211
4.2490000724792	-7.9635140708153
4.2579998970032	-7.9466048928135
4.2670001983643	-7.9300785181118
4.2760000228882	-7.9139239107649
4.2849998474121	-7.8981345681271
4.2940001487732	-7.8827006896663
4.3029999732971	-7.8676130201837
4.3119997978210	-7.8528636434118
4.3210000991821	-7.8384412880886
4.3299999237061	-7.8243382475423
4.3390002250671	-7.8105433440870
4.3480000495911	-7.7970487006119
4.3569998741150	-7.7838441305291
4.3660001754761	-7.7709196177016
4.3750000000000	-7.7582658527135
4.3839998245239	-7.7458720993215
4.3930001258850	-7.7337300626931
4.4019999504089	-7.7218287236250
4.4109997749329	-7.7101581790677
4.4200000762939	-7.6987083705878
4.4289999008179	-7.6874697099297
4.4380002021790	-7.6764323891374
4.4470000267029	-7.6655866550269
4.4559998512268	-7.6549228729066
4.4650001525879	-7.6444300906652
4.4739999771118	-7.6340989356786
4.4829998016357	-7.6239218481513
4.4920001029968	-7.6138853208302
4.5009999275208	-7.6039833319921
4.5100002288818	-7.5942050157256
4.5190000534058	-7.5845390488610
4.5279998779297	-7.5749792907821
4.5370001792908	-7.5655159744886
4.5460000038147	-7.5561392850321
4.5549998283386	-7.5468402989960
4.5640001296997	-7.5376116338346
4.5729999542236	-7.5284440861521
4.5819997787476	-7.5193300509764
4.5910000801086	-7.5102605274748
4.5999999046326	-7.5012278799953
4.6090002059937	-7.4922254454460
4.6180000305176	-7.4832453385857
4.6269998550415	-7.4742787970942
4.6360001564026	-7.4653204381557
4.6449999809265	-7.4563634882110
4.6539998054504	-7.4474022128367
4.6630001068115	-7.4384289403594
4.6719999313354	-7.4294371166243
4.6810002326965	-7.4204231284827
4.6900000572205	-7.4113814061306
4.6989998817444	-7.4023068524664
4.7080001831055	-7.3931935848216
4.7170000076294	-7.3840378515384
4.7259998321533	-7.3748356664296
4.7350001335144	-7.3655830679697
4.7439999580383	-7.3562764171807
4.7529997825623	-7.3469124872628
4.7620000839233	-7.3374888227416
4.7709999084473	-7.3280027803980
4.7800002098083	-7.3184505996799
4.7890000343323	-7.3088334763671
4.7979998588562	-7.2991471956890
4.8070001602173	-7.2893902052046
4.8159999847412	-7.2795623838827
4.8249998092651	-7.2696643082590
4.8340001106262	-7.2596934155326
4.8429999351501	-7.2496503834077
4.8520002365112	-7.2395358305078
4.8610000610352	-7.2293512023866
4.8699998855591	-7.2190956769026
4.8790001869202	-7.2087701998136
4.8880000114441	-7.1983763401190
4.8969998359680	-7.1879175506605
4.9060001373291	-7.1773947821641
4.9149999618530	-7.1668090561995
4.9239997863770	-7.1561646433998
4.9330000877380	-7.1454639687005
4.9419999122620	-7.1347067584698
4.9510002136230	-7.1239004127145
4.9600000381470	-7.1130457178930
4.9689998626709	-7.1021487199529
4.9780001640320	-7.0912115240379
4.9869999885559	-7.0802380572959
4.9959998130798	-7.0692342178797
5.0050001144409	-7.0582004921140
5.0139999389648	-7.0471471129036
5.0229997634888	-7.0360743311128
5.0320000648499	-7.0249886394686
5.0409998893738	-7.0138952398969
5.0500001907349	-7.0027996954494
5.0590000152588	-6.9917052992121
5.0679998397827	-6.9806196149434
5.0770001411438	-6.9695479817249
5.0859999656677	-6.9584953501689
5.0949997901917	-6.9474661920025
5.1040000915527	-6.9364688838148
5.1129999160767	-6.9255082436677
5.1220002174377	-6.9145885309362
5.1310000419617	-6.9037179752228
5.1399998664856	-6.8929017795270
5.1490001678467	-6.8821456433973
5.1579999923706	-6.8714570332403
5.1669998168945	-6.8608388942341
5.1760001182556	-6.8503001083198
5.1849999427795	-6.8398461932765
5.1939997673035	-6.8294832812431
5.2030000686646	-6.8192154691531
5.2119998931885	-6.8090528206385
5.2210001945496	-6.7989971712010
5.2300000190735	-6.7890573736486
5.2389998435974	-6.7792370390418
5.2480001449585	-6.7695438248611
5.2569999694824	-6.7599834966285
5.2659997940063	-6.7505604809375
5.2750000953674	-6.7412807473931
5.2839999198914	-6.7321518842670
5.2930002212524	-6.7231757656680
5.3020000457764	-6.7143609311997
5.3109998703003	-6.7057131053701
5.3200001716614	-6.6972343613358
5.3289999961853	-6.6889333419028
5.3379998207092	-6.6808098599926
5.3470001220703	-6.6728745224803
5.3559999465942	-6.6651297128011
5.3649997711182	-6.6575804159696
5.3740000724792	-6.6502299451589
5.3829998970032	-6.6430838318947
5.3920001983643	-6.6361471564185
5.4010000228882	-6.6294237013762
5.4099998474121	-6.6229152946366
5.4190001487732	-6.6166277079790
5.4279999732971	-6.6105647970730
5.4369997978210	-6.6047289720926
5.4460000991821	-6.5991252120088
5.4549999237061	-6.5937553212258
5.4640002250671	-6.5886210861430
5.4730000495911	-6.5837305077872
5.4819998741150	-6.5790800625129
5.4910001754761	-6.5746770001152
5.5000000000000	-6.5705215491317
5.5089998245239	-6.5666145096461
5.5180001258850	-6.5629616577030
5.5269999504089	-6.5595633483352
5.5359997749329	-6.5564195748705
5.5450000762939	-6.5535331286720
5.5539999008179	-6.5509058660008
5.5630002021790	-6.5485390946678
5.5720000267029	-6.5464309977801
5.5809998512268	-6.5445857941201
5.5900001525879	-6.5430032141429
5.5989999771118	-6.5416825970644
5.6079998016357	-6.5406246216891
5.6170001029968	-6.5398291034478
5.6259999275208	-6.5392957053828
5.6350002288818	-6.5390247015050
5.6440000534058	-6.5390154546044
5.6529998779297	-6.5392666406445
5.6620001792908	-6.5397775903725
5.6710000038147	-6.5405463123023
5.6799998283386	-6.5415733405605
5.6890001296997	-6.5428550531281
5.6979999542236	-6.5443909796592
5.7069997787476	-6.5461787527006
5.7160000801086	-6.5482160749416
5.7249999046326	-6.5505011920202
5.7340002059937	-6.5530300647874
5.7430000305176	-6.5558016276749
5.7519998550415	-6.5588132782479
5.7610001564026	-6.5620594216881
5.7699999809265	-6.5655388824323
5.7789998054504	-6.5692470943798
5.7880001068115	-6.5731808382635
5.7969999313354	-6.5773379124632
5.8060002326965	-6.5817110828913
5.8150000572205	-6.5862980059301
5.8239998817444	-6.5910932838146
5.8330001831055	-6.5960935248603
5.8420000076294	-6.6012931856568
5.8509998321533	-6.6066878530410
5.8600001335144	-6.6122716517664
5.8689999580383	-6.6180391188864
5.8779997825623	-6.6239876053811
5.8870000839233	-6.6301074417463
5.8959999084473	-6.6363972697142
5.9050002098083	-6.6428494146920
5.9140000343323	-6.6494553045836
5.9229998588562	-6.6562134334611
5.9320001602173	-6.6631130152762
5.9409999847412	-6.6701526976333
5.9499998092651	-6.6773218574861
5.9590001106262	-6.6846158175250
5.9679999351501	-6.6920291990638
5.9770002365112	-6.6995530721409
5.9860000610352	-6.7071802009272
5.9949998855591	-6.7149077783698
6.0040001869202	-6.7227246214284
6.0130000114441	-6.7306239332795
6.0219998359680	-6.7386009658670
6.0310001373291	-6.7466490095787
6.0399999618530	-6.7547589047703
6.0489997863770	-6.7629237625485
6.0580000877380	-6.7711369935402
6.0669999122620	-6.7793923513487
6.0760002136230	-6.7876822835836
6.0850000381470	-6.7959982598384
6.0939998626709	-6.8043337912321
6.1030001640320	-6.8126830042267
6.1119999885559	-6.8210377454075
6.1209998130798	-6.8293915150266
6.1300001144409	-6.8377363315068
6.1389999389648	-6.8460677096771
6.1479997634888	-6.8543775674299
6.1570000648499	-6.8626583934505
6.1659998893738	-6.8709040112692
6.1750001907349	-6.8791094651613
6.1840000152588	-6.8872667720047
6.1929998397827	-6.8953696313112
6.2020001411438	-6.9034128443959
6.2109999656677	-6.9113902965604
6.2199997901917	-6.9192971320628
6.2290000915527	-6.9271247954324
6.2379999160767	-6.9348695033778
6.2470002174377	-6.9425281407872
6.2560000419617	-6.9500918676771
6.2649998664856	-6.9575582059116
6.2740001678467	-6.9649209990762
6.2829999923706	-6.9721759817218
6.2919998168945	-6.9793192247977
6.3010001182556	-6.9863474379129
6.3099999427795	-6.9932556486897
6.3189997673035	-7.0000382223387
6.3280000686646	-7.0066945644428
6.3369998931885	-7.0132204045051
6.3460001945496	-7.0196130182750
6.3550000190735	-7.0258679492869
6.3639998435974	-7.0319845751915
6.3730001449585	-7.0379596911336
6.3819999694824	-7.0437914690213
6.3909997940063	-7.0494774179629
