#Parameters = {h=1.5; l=55; n=7.8; w=50; wp=3; x=18.8}
#"Frequency / GHz"	"S1,1 (428) [Magnitude / dB]"
#-----------------------------------------------
1.0000000000000	-0.30044687016970
1.0089999437332	-0.29796924453105
1.0180000066757	-0.29667433701330
1.0269999504089	-0.29656813071397
1.0360000133514	-0.29765762538277
1.0449999570847	-0.29994656879913
1.0540000200272	-0.30344109065151
1.0629999637604	-0.30814634942243
1.0720000267029	-0.31406801555473
1.0809999704361	-0.32121218991464
1.0900000333786	-0.32958253311309
1.0989999771118	-0.33918709659473
1.1080000400543	-0.35003055741862
1.1169999837875	-0.36211812727641
1.1260000467300	-0.37545425229393
1.1349999904633	-0.39004905160544
1.1440000534058	-0.40590368272880
1.1529999971390	-0.42302757480274
1.1619999408722	-0.44142445475149
1.1710000038147	-0.46110246044026
1.1799999475479	-0.48206761954119
1.1890000104904	-0.50432588473643
1.1979999542236	-0.52788174415122
1.2070000171661	-0.55274546893359
1.2159999608994	-0.57892333747318
1.2250000238419	-0.60642078201663
1.2339999675751	-0.63524359712930
1.2430000305176	-0.66540116702907
1.2519999742508	-0.69690000144994
1.2610000371933	-0.72974633978242
1.2699999809265	-0.76394893098304
1.2790000438690	-0.79951449119382
1.2879999876022	-0.83644820900472
1.2970000505447	-0.87476145489090
1.3059999942780	-0.91445934800608
1.3150000572205	-0.95554899618643
1.3240000009537	-0.99803881889091
1.3329999446869	-1.0419374860319
1.3420000076294	-1.0872506873037
1.3509999513626	-1.1339864458908
1.3600000143051	-1.1821525815063
1.3689999580383	-1.2317569314849
1.3780000209808	-1.2828054086136
1.3869999647141	-1.3353075759746
1.3960000276566	-1.3892702684387
1.4049999713898	-1.4446990249013
1.4140000343323	-1.5016042786871
1.4229999780655	-1.5599891422891
1.4320000410080	-1.6198648407138
1.4409999847412	-1.6812366506086
1.4500000476837	-1.7441104160868
1.4589999914169	-1.8084942447799
1.4680000543594	-1.8743944128765
1.4769999980927	-1.9418167556117
1.4859999418259	-2.0107691577587
1.4950000047684	-2.0812570316094
1.5039999485016	-2.1532857765027
1.5130000114441	-2.2268619522351
1.5219999551773	-2.3019907073663
1.5310000181198	-2.3786768891482
1.5399999618530	-2.4569288955577
1.5490000247955	-2.5367487413252
1.5579999685287	-2.6181424876361
1.5670000314713	-2.7011146584888
1.5759999752045	-2.7856686784622
1.5850000381470	-2.8718099433135
1.5939999818802	-2.9595444368488
1.6030000448227	-3.0488709463746
1.6119999885559	-3.1397974304994
1.6210000514984	-3.2323253420978
1.6299999952316	-3.3264582656217
1.6390000581741	-3.4221972884014
1.6480000019073	-3.5195472639933
1.6569999456406	-3.6185076628209
1.6660000085831	-3.7190835760580
1.6749999523163	-3.8212752584721
1.6840000152588	-3.9250837716893
1.6929999589920	-4.0305105876136
1.7020000219345	-4.1375556037481
1.7109999656677	-4.2462210956350
1.7200000286102	-4.3565063165780
1.7289999723434	-4.4684118248187
1.7380000352859	-4.5819362144105
1.7469999790192	-4.6970791586312
1.7560000419617	-4.8138395750864
1.7649999856949	-4.9322153215950
1.7740000486374	-5.0522065000714
1.7829999923706	-5.1738093924777
1.7920000553131	-5.2970218723748
1.8009999990463	-5.4218409067241
1.8099999427795	-5.5482623655449
1.8190000057220	-5.6762834683238
1.8279999494553	-5.8058996189846
1.8370000123978	-5.9371041771592
1.8459999561310	-6.0698949213140
1.8550000190735	-6.2042627742595
1.8639999628067	-6.3402043081500
1.8730000257492	-6.4777085464137
1.8819999694824	-6.6167700817178
1.8910000324249	-6.7573794051300
1.8999999761581	-6.8995281393947
1.9090000391006	-7.0432036492767
1.9179999828339	-7.1883959874974
1.9270000457764	-7.3350923069705
1.9359999895096	-7.4832807650389
1.9450000524521	-7.6329447359029
1.9539999961853	-7.7840695835826
1.9630000591278	-7.9366366001306
1.9720000028610	-8.0906299377910
1.9809999465942	-8.2460258449498
1.9900000095367	-8.4028051395948
1.9989999532700	-8.5609415334891
2.0079998970032	-8.7204105671966
2.0169999599457	-8.8811831126255
2.0260000228882	-9.0432291277105
2.0350000858307	-9.2065145594806
2.0439999103546	-9.3710038233086
2.0529999732971	-9.5366583714305
2.0620000362396	-9.7034362505059
2.0710000991821	-9.8712897393320
2.0799999237061	-10.040170839875
2.0889999866486	-10.210025347743
2.0980000495911	-10.380793999294
2.1070001125336	-10.552416044161
2.1159999370575	-10.724823340128
2.1250000000000	-10.897939485505
2.1340000629425	-11.071689211463
2.1429998874664	-11.245984948632
2.1519999504089	-11.420733975317
2.1610000133514	-11.595839842245
2.1700000762939	-11.771195141244
2.1789999008179	-11.946686436279
2.1879999637604	-12.122188827165
2.1970000267029	-12.297574590399
2.2060000896454	-12.472701287063
2.2149999141693	-12.647421651431
2.2239999771118	-12.821574720633
2.2330000400543	-12.994993152309
2.2420001029968	-13.167495967834
2.2509999275208	-13.338894670325
2.2599999904633	-13.508988372405
2.2690000534058	-13.677566135445
2.2780001163483	-13.844409339991
2.2869999408722	-14.009285337732
2.2960000038147	-14.171953664587
2.3050000667572	-14.332166100285
2.3139998912811	-14.489664077423
2.3229999542236	-14.644183156210
2.3320000171661	-14.795452982233
2.3410000801086	-14.943197535240
2.3499999046326	-15.087138825223
2.3589999675751	-15.226998275984
2.3680000305176	-15.362496135914
2.3770000934601	-15.493358843344
2.3859999179840	-15.619314234455
2.3949999809265	-15.740103826789
2.4040000438690	-15.855474603436
2.4130001068115	-15.965192566514
2.4219999313354	-16.069034799993
2.4309999942780	-16.166800837835
2.4400000572205	-16.258310436492
2.4489998817444	-16.343406638389
2.4579999446869	-16.421959009512
2.4670000076294	-16.493867063538
2.4760000705719	-16.559052752096
2.4849998950958	-16.617474904991
2.4939999580383	-16.669119229938
2.5030000209808	-16.714002381106
2.5120000839233	-16.752170089548
2.5209999084473	-16.783700610446
2.5299999713898	-16.808695728480
2.5390000343323	-16.827284520934
2.5480000972748	-16.839624818055
2.5569999217987	-16.845890313480
2.5659999847412	-16.846277473157
2.5750000476837	-16.840999593689
2.5840001106262	-16.830283002688
2.5929999351501	-16.814365414923
2.6019999980927	-16.793496881061
2.6110000610352	-16.767928064432
2.6199998855591	-16.737918364650
2.6289999485016	-16.703725596164
2.6380000114441	-16.665608849828
2.6470000743866	-16.623822496629
2.6559998989105	-16.578618508205
2.6649999618530	-16.530243901044
2.6740000247955	-16.478937719028
2.6830000877380	-16.424929019752
2.6919999122620	-16.368443611810
2.7009999752045	-16.309693390361
2.7100000381470	-16.248878652980
2.7190001010895	-16.186196923317
2.7279999256134	-16.121829224816
2.7369999885559	-16.055948240366
2.7460000514984	-15.988716798559
2.7550001144409	-15.920288068845
2.7639999389648	-15.850802129554
2.7730000019073	-15.780394805815
2.7820000648499	-15.709186650527
2.7909998893738	-15.637294730142
2.7999999523163	-15.564823656927
2.8090000152588	-15.491872865857
2.8180000782013	-15.418530737007
2.8269999027252	-15.344881645119
2.8359999656677	-15.271000886608
2.8450000286102	-15.196957230279
2.8540000915527	-15.122817054522
2.8629999160767	-15.048635654185
2.8719999790192	-14.974467631543
2.8810000419617	-14.900358298269
2.8900001049042	-14.826353405670
2.8989999294281	-14.752489441794
2.9079999923706	-14.678803423447
2.9170000553131	-14.605325435741
2.9260001182556	-14.532083505969
2.9349999427795	-14.459103642560
2.9440000057220	-14.386407478516
2.9530000686646	-14.314014827192
2.9619998931885	-14.241942205880
2.9709999561310	-14.170205477288
2.9800000190735	-14.098818373022
2.9890000820160	-14.027791501796
2.9979999065399	-13.957134658616
3.0069999694824	-13.886856221464
3.0160000324249	-13.816963473123
3.0250000953674	-13.747461456388
3.0339999198914	-13.678355083273
3.0429999828339	-13.609651177923
3.0520000457764	-13.541348441602
3.0610001087189	-13.473452295310
3.0699999332428	-13.405961782123
3.0789999961853	-13.338879822297
3.0880000591278	-13.272206441446
3.0969998836517	-13.205942278420
3.1059999465942	-13.140087066501
3.1150000095367	-13.074638855071
3.1240000724792	-13.009598852283
3.1329998970032	-12.944964510668
3.1419999599457	-12.880736323342
3.1510000228882	-12.816911848912
3.1600000858307	-12.753490102037
3.1689999103546	-12.690470058608
3.1779999732971	-12.627849720234
3.1870000362396	-12.565627852518
3.1960000991821	-12.503803117865
3.2049999237061	-12.442374019517
3.2139999866486	-12.381341169173
3.2230000495911	-12.320700617693
3.2320001125336	-12.260452784971
3.2409999370575	-12.200599103725
3.2500000000000	-12.141134406258
3.2590000629425	-12.082058362523
3.2679998874664	-12.023374283318
3.2769999504089	-11.965078971732
3.2860000133514	-11.907172949277
3.2950000762939	-11.849656201514
3.3039999008179	-11.792529150961
3.3129999637604	-11.735791923496
3.3220000267029	-11.679444001438
3.3310000896454	-11.623485501044
3.3399999141693	-11.567918677916
3.3489999771118	-11.512744209694
3.3580000400543	-11.457962988253
3.3670001029968	-11.403573892425
3.3759999275208	-11.349581774598
3.3849999904633	-11.295985760795
3.3940000534058	-11.242787900321
3.4030001163483	-11.189989464028
3.4119999408722	-11.137594674995
3.4210000038147	-11.085601081547
3.4300000667572	-11.034014648185
3.4389998912811	-10.982834259800
3.4479999542236	-10.932062774602
3.4570000171661	-10.881704683596
3.4660000801086	-10.831760677262
3.4749999046326	-10.782232296594
3.4839999675751	-10.733122251562
3.4930000305176	-10.684433408343
3.5020000934601	-10.636169321965
3.5109999179840	-10.588329924007
3.5199999809265	-10.540918400335
3.5290000438690	-10.493939912407
3.5380001068115	-10.447393311260
3.5469999313354	-10.401282192156
3.5559999942780	-10.355610741260
3.5650000572205	-10.310378589571
3.5739998817444	-10.265591054741
3.5829999446869	-10.221250114441
3.5920000076294	-10.177354641590
3.6010000705719	-10.133910998852
3.6099998950958	-10.090919965285
3.6189999580383	-10.048385330078
3.6280000209808	-10.006305437079
3.6370000839233	-9.9646837706741
3.6459999084473	-9.9235244276556
3.6549999713898	-9.8828286246365
3.6640000343323	-9.8425961558666
3.6730000972748	-9.8028302548901
3.6819999217987	-9.7635323618621
3.6909999847412	-9.7247036822311
3.7000000476837	-9.6863454876278
3.7090001106262	-9.6484607931087
3.7179999351501	-9.6110477354789
3.7269999980927	-9.5741100331280
3.7360000610352	-9.5376460164164
3.7449998855591	-9.5016592902360
3.7539999485016	-9.4661482834660
3.7630000114441	-9.4311144831814
3.7720000743866	-9.3965587713952
3.7809998989105	-9.3624804421126
3.7899999618530	-9.3288799326933
3.7990000247955	-9.2957556808924
3.8080000877380	-9.2631101238736
3.8169999122620	-9.2309413393372
3.8259999752045	-9.1992500532435
3.8350000381470	-9.1680349828987
3.8440001010895	-9.1372934939246
3.8529999256134	-9.1070281088824
3.8619999885559	-9.0772335655678
3.8710000514984	-9.0479127074952
3.8800001144409	-9.0190605842903
3.8889999389648	-8.9906773221387
3.8980000019073	-8.9627615989725
3.9070000648499	-8.9353132713672
3.9159998893738	-8.9083241259090
3.9249999523163	-8.8817980232485
3.9340000152588	-8.8557301662424
3.9430000782013	-8.8301187259322
3.9519999027252	-8.8049591469908
3.9609999656677	-8.7802501497432
3.9700000286102	-8.7559894722967
3.9790000915527	-8.7321715765405
3.9879999160767	-8.7087958003200
3.9969999790192	-8.6858562838175
4.0060000419617	-8.6633490731253
4.0149998664856	-8.6412743584138
4.0240001678467	-8.6196236541203
4.0329999923706	-8.5983956835882
4.0419998168945	-8.5775838815177
4.0510001182556	-8.5571877837564
4.0599999427795	-8.5371966290904
4.0689997673035	-8.5176120739039
4.0780000686646	-8.4984251065644
4.0869998931885	-8.4796314375643
4.0960001945496	-8.4612279165402
4.1050000190735	-8.4432068249626
4.1139998435974	-8.4255640350452
4.1230001449585	-8.4082940043006
4.1319999694824	-8.3913894450474
4.1409997940063	-8.3748489405541
4.1500000953674	-8.3586603590213
4.1589999198914	-8.3428223142823
4.1680002212524	-8.3273264125699
4.1770000457764	-8.3121670406190
4.1859998703003	-8.2973370684847
4.1950001716614	-8.2828304252402
4.2039999961853	-8.2686415367825
4.2129998207092	-8.2547631539305
4.2220001220703	-8.2411865265769
4.2309999465942	-8.2279060452347
4.2399997711182	-8.2149156443923
4.2490000724792	-8.2022063222869
4.2579998970032	-8.1897724291244
4.2670001983643	-8.1776063903023
4.2760000228882	-8.1656993706963
4.2849998474121	-8.1540454047696
4.2940001487732	-8.1426371792741
4.3029999732971	-8.1314658949138
4.3119997978210	-8.1205236500827
4.3210000991821	-8.1098053585834
4.3299999237061	-8.0993007739200
4.3390002250671	-8.0890027055857
4.3480000495911	-8.0789044021987
4.3569998741150	-8.0689955625513
4.3660001754761	-8.0592723235357
4.3750000000000	-8.0497223088766
4.3839998245239	-8.0403414750046
4.3930001258850	-8.0311189602129
4.4019999504089	-8.0220484461129
4.4109997749329	-8.0131226713477
4.4200000762939	-8.0043327158398
4.4289999008179	-7.9956710872859
4.4380002021790	-7.9871303585159
4.4470000267029	-7.9787026318794
4.4559998512268	-7.9703792119329
4.4650001525879	-7.9621534542371
4.4739999771118	-7.9540199709930
4.4829998016357	-7.9459669623514
4.4920001029968	-7.9379906546669
4.5009999275208	-7.9300822394448
4.5100002288818	-7.9222343933916
4.5190000534058	-7.9144397372632
4.5279998779297	-7.9066928976676
4.5370001792908	-7.8989852323128
4.5460000038147	-7.8913120142777
4.5549998283386	-7.8836637316636
4.5640001296997	-7.8760371838033
4.5729999542236	-7.8684260083412
4.5819997787476	-7.8608206189007
4.5910000801086	-7.8532182163863
4.5999999046326	-7.8456118689538
4.6090002059937	-7.8379975921610
4.6180000305176	-7.8303676822907
4.6269998550415	-7.8227185257707
4.6360001564026	-7.8150437434835
4.6449999809265	-7.8073407708534
4.6539998054504	-7.7996025794863
4.6630001068115	-7.7918272222503
4.6719999313354	-7.7840080239481
4.6810002326965	-7.7761448400059
4.6900000572205	-7.7682303089762
4.6989998817444	-7.7602644510728
4.7080001831055	-7.7522408116970
4.7170000076294	-7.7441591763288
4.7259998321533	-7.7360135717387
4.7350001335144	-7.7278062567451
4.7439999580383	-7.7195331222558
4.7529997825623	-7.7111908964691
4.7620000839233	-7.7027805793812
4.7709999084473	-7.6942989649392
4.7800002098083	-7.6857459736522
4.7890000343323	-7.6771204409471
4.7979998588562	-7.6684224370840
4.8070001602173	-7.6596523915081
4.8159999847412	-7.6508087383446
4.8249998092651	-7.6418931481260
4.8340001106262	-7.6329059655374
4.8429999351501	-7.6238471755248
4.8520002365112	-7.6147196106298
4.8610000610352	-7.6055243042718
4.8699998855591	-7.5962629738183
4.8790001869202	-7.5869364591332
4.8880000114441	-7.5775470322601
4.8969998359680	-7.5681004871612
4.9060001373291	-7.5585958576367
4.9149999618530	-7.5490376792513
4.9239997863770	-7.5394285153583
4.9330000877380	-7.5297723846302
4.9419999122620	-7.5200738963418
4.9510002136230	-7.5103353227250
4.9600000381470	-7.5005620217730
4.9689998626709	-7.4907570851923
4.9780001640320	-7.4809266711347
4.9869999885559	-7.4710745303627
4.9959998130798	-7.4612039376633
5.0050001144409	-7.4513236742282
5.0139999389648	-7.4414365958766
5.0229997634888	-7.4315475981256
5.0320000648499	-7.4216648729267
5.0409998893738	-7.4117917881188
5.0500001907349	-7.4019350366250
5.0590000152588	-7.3921007347159
5.0679998397827	-7.3822937324678
5.0770001411438	-7.3725225989568
5.0859999656677	-7.3627924332943
5.0949997901917	-7.3531100316622
5.1040000915527	-7.3434800314255
5.1129999160767	-7.3339121448627
5.1220002174377	-7.3244096022558
5.1310000419617	-7.3149824430294
5.1399998664856	-7.3056359623343
5.1490001678467	-7.2963755013336
5.1579999923706	-7.2872100684603
5.1669998168945	-7.2781459210654
5.1760001182556	-7.2691895436886
5.1849999427795	-7.2603476060934
5.1939997673035	-7.2516261575466
5.2030000686646	-7.2430346477845
5.2119998931885	-7.2345768048440
5.2210001945496	-7.2262614917799
5.2300000190735	-7.2180954196609
5.2389998435974	-7.2100836843646
5.2480001449585	-7.2022347960508
5.2569999694824	-7.1945523244799
5.2659997940063	-7.1870456260751
5.2750000953674	-7.1797205953193
5.2839999198914	-7.1725815423885
5.2930002212524	-7.1656373143396
5.3020000457764	-7.1588919378151
5.3109998703003	-7.1523525245020
5.3200001716614	-7.1460257604467
5.3289999961853	-7.1399154311816
5.3379998207092	-7.1340270276695
5.3470001220703	-7.1283665010451
5.3559999465942	-7.1229409637789
5.3649997711182	-7.1177529672341
5.3740000724792	-7.1128089943337
5.3829998970032	-7.1081122342104
5.3920001983643	-7.1036682067085
5.4010000228882	-7.0994811258281
5.4099998474121	-7.0955572121924
5.4190001487732	-7.0918978795181
5.4279999732971	-7.0885061593815
5.4369997978210	-7.0853886178014
5.4460000991821	-7.0825482482008
5.4549999237061	-7.0799854223097
5.4640002250671	-7.0777059093341
5.4730000495911	-7.0757109900418
5.4819998741150	-7.0740034266869
5.4910001754761	-7.0725850824190
5.5000000000000	-7.0714591786179
5.5089998245239	-7.0706253899472
5.5180001258850	-7.0700868863222
5.5269999504089	-7.0698433567919
5.5359997749329	-7.0698969872500
5.5450000762939	-7.0702489277979
5.5539999008179	-7.0708974346171
5.5630002021790	-7.0718435465375
5.5720000267029	-7.0730866875953
5.5809998512268	-7.0746281506002
5.5900001525879	-7.0764648594576
5.5989999771118	-7.0785960023633
5.6079998016357	-7.0810202546330
5.6170001029968	-7.0837360490995
5.6259999275208	-7.0867407211800
5.6350002288818	-7.0900319916032
5.6440000534058	-7.0936090262818
5.6529998779297	-7.0974653345744
5.6620001792908	-7.1015986939223
5.6710000038147	-7.1060061511338
5.6799998283386	-7.1106836617009
5.6890001296997	-7.1156243256774
5.6979999542236	-7.1208264713303
5.7069997787476	-7.1262811614872
5.7160000801086	-7.1319864271481
5.7249999046326	-7.1379346569069
5.7340002059937	-7.1441191573254
5.7430000305176	-7.1505343437573
5.7519998550415	-7.1571720841818
5.7610001564026	-7.1640249344088
5.7699999809265	-7.1710853292305
5.7789998054504	-7.1783467745863
5.7880001068115	-7.1857979846991
5.7969999313354	-7.1934323991254
5.8060002326965	-7.2012384418121
5.8150000572205	-7.2092084648873
5.8239998817444	-7.2173324649436
5.8330001831055	-7.2255989604213
5.8420000076294	-7.2339990136369
5.8509998321533	-7.2425192918626
5.8600001335144	-7.2511520006955
5.8689999580383	-7.2598811142463
5.8779997825623	-7.2686978665978
5.8870000839233	-7.2775888480190
5.8959999084473	-7.2865425421974
5.9050002098083	-7.2955437630487
5.9140000343323	-7.3045826337265
5.9229998588562	-7.3136425768092
5.9320001602173	-7.3227109962416
5.9409999847412	-7.3317748204748
5.9499998092651	-7.3408210471422
5.9590001106262	-7.3498317301794
5.9679999351501	-7.3587957809082
5.9770002365112	-7.3676972178054
5.9860000610352	-7.3765207366447
5.9949998855591	-7.3852517794295
6.0040001869202	-7.3938756242939
6.0130000114441	-7.4023781749834
6.0219998359680	-7.4107426080993
6.0310001373291	-7.4189532729458
6.0399999618530	-7.4269941101641
6.0489997863770	-7.4348537852978
6.0580000877380	-7.4425121923833
6.0669999122620	-7.4499587372768
6.0760002136230	-7.4571755845848
6.0850000381470	-7.4641472031461
6.0939998626709	-7.4708608505910
6.1030001640320	-7.4773004599697
6.1119999885559	-7.4834508946618
6.1209998130798	-7.4893001019092
6.1300001144409	-7.4948332532711
6.1389999389648	-7.5000346448537
6.1479997634888	-7.5048915486062
6.1570000648499	-7.5093937127883
6.1659998893738	-7.5135253605105
6.1750001907349	-7.5172752295246
6.1840000152588	-7.5206316025361
6.1929998397827	-7.5235812610261
6.2020001411438	-7.5261161329261
6.2109999656677	-7.5282243161463
6.2199997901917	-7.5298939167009
6.2290000915527	-7.5311183832751
6.2379999160767	-7.5318885826975
6.2470002174377	-7.5321941625675
6.2560000419617	-7.5320307027322
6.2649998664856	-7.5313873742990
6.2740001678467	-7.5302601604356
6.2829999923706	-7.5286424832585
6.2919998168945	-7.5265303937940
6.3010001182556	-7.5239190025926
6.3099999427795	-7.5208031891731
6.3189997673035	-7.5171821396409
6.3280000686646	-7.5130522368267
6.3369998931885	-7.5084121156211
6.3460001945496	-7.5032608410446
6.3550000190735	-7.4975992814703
6.3639998435974	-7.4914268457536
6.3730001449585	-7.4847440881038
6.3819999694824	-7.4775548544160
6.3909997940063	-7.4698614409875
