#Parameters = {h=1.5; l=55; n=12.8; w=50; wp=3; x=19.3}
#"Frequency / GHz"	"S1,1 (476) [Magnitude / dB]"
#-----------------------------------------------
1.0000000000000	-0.30189907425900
1.0089999437332	-0.29924358497387
1.0180000066757	-0.29776294121625
1.0269999504089	-0.29746478913277
1.0360000133514	-0.29835400875580
1.0449999570847	-0.30043742747024
1.0540000200272	-0.30371886932518
1.0629999637604	-0.30820652924872
1.0720000267029	-0.31390311551043
1.0809999704361	-0.32081599090336
1.0900000333786	-0.32895128097341
1.0989999771118	-0.33831537206041
1.1080000400543	-0.34891129925546
1.1169999837875	-0.36074824034127
1.1260000467300	-0.37383059372786
1.1349999904633	-0.38816393885884
1.1440000534058	-0.40375551482541
1.1529999971390	-0.42061141686967
1.1619999408722	-0.43873940722243
1.1710000038147	-0.45814198867993
1.1799999475479	-0.47882860750734
1.1890000104904	-0.50080687295048
1.1979999542236	-0.52408072927609
1.2070000171661	-0.54865925202474
1.2159999608994	-0.57454842295024
1.2250000238419	-0.60175466409002
1.2339999675751	-0.63028842714537
1.2430000305176	-0.66015257387770
1.2519999742508	-0.69135770224980
1.2610000371933	-0.72391070569905
1.2699999809265	-0.75781797133638
1.2790000438690	-0.79308728290211
1.2879999876022	-0.82972760131270
1.2970000505447	-0.86774654359692
1.3059999942780	-0.90715008105310
1.3150000572205	-0.94794785647111
1.3240000009537	-0.99014547440503
1.3329999446869	-1.0337534954409
1.3420000076294	-1.0787790485356
1.3509999513626	-1.1252311669481
1.3600000143051	-1.1731140132575
1.3689999580383	-1.2224387581857
1.3780000209808	-1.2732130469013
1.3869999647141	-1.3254441263351
1.3960000276566	-1.3791380979446
1.4049999713898	-1.4343057455595
1.4140000343323	-1.4909519919942
1.4229999780655	-1.5490888620937
1.4320000410080	-1.6087182214731
1.4409999847412	-1.6698519329264
1.4500000476837	-1.7324948478656
1.4589999914169	-1.7966550175879
1.4680000543594	-1.8623401698802
1.4769999980927	-1.9295559772622
1.4859999418259	-1.9983110969158
1.4950000047684	-2.0686111103639
1.5039999485016	-2.1404632436738
1.5130000114441	-2.2138726583864
1.5219999551773	-2.2888474137311
1.5310000181198	-2.3653930027832
1.5399999618530	-2.4435136155592
1.5490000247955	-2.5232166728687
1.5579999685287	-2.6045089826514
1.5670000314713	-2.6873923307549
1.5759999752045	-2.7718750299340
1.5850000381470	-2.8579605057022
1.5939999818802	-2.9456537701914
1.6030000448227	-3.0349585603610
1.6119999885559	-3.1258811662134
1.6210000514984	-3.2184224966812
1.6299999952316	-3.3125886537740
1.6390000581741	-3.4083830097365
1.6480000019073	-3.5058074688233
1.6569999456406	-3.6048650618605
1.6660000085831	-3.7055594232074
1.6749999523163	-3.8078941068900
1.6840000152588	-3.9118692720109
1.6929999589920	-4.0174868577937
1.7020000219345	-4.1247488213024
1.7109999656677	-4.2336575413795
1.7200000286102	-4.3442120968050
1.7289999723434	-4.4564153211863
1.7380000352859	-4.5702659034563
1.7469999790192	-4.6857640641221
1.7560000419617	-4.8029104494476
1.7649999856949	-4.9217032262486
1.7740000486374	-5.0421416461368
1.7829999923706	-5.1642242214964
1.7920000553131	-5.2879495355665
1.8009999990463	-5.4133141191206
1.8099999427795	-5.5403159667925
1.8190000057220	-5.6689510612347
1.8279999494553	-5.7992162007263
1.8370000123978	-5.9311060270265
1.8459999561310	-6.0646158368768
1.8550000190735	-6.1997424285050
1.8639999628067	-6.3364748010744
1.8730000257492	-6.4748101809115
1.8819999694824	-6.6147365256463
1.8910000324249	-6.7562483757067
1.8999999761581	-6.8993352427973
1.9090000391006	-7.0439853399778
1.9179999828339	-7.1901875494032
1.9270000457764	-7.3379293895162
1.9359999895096	-7.4871955750246
1.9450000524521	-7.6379712059951
1.9539999961853	-7.7902385361402
1.9630000591278	-7.9439801728490
1.9720000028610	-8.0991739626841
1.9809999465942	-8.2557982167485
1.9900000095367	-8.4138279063690
1.9989999532700	-8.5732382047084
2.0079998970032	-8.7339957121152
2.0169999599457	-8.8960725490147
2.0260000228882	-9.0594312830788
2.0350000858307	-9.2240366216380
2.0439999103546	-9.3898441427067
2.0529999732971	-9.5568110531688
2.0620000362396	-9.7248869811510
2.0710000991821	-9.8940199043499
2.0799999237061	-10.064152793860
2.0889999866486	-10.235220363548
2.0980000495911	-10.407156101538
2.1070001125336	-10.579886843656
2.1159999370575	-10.753331692349
2.1250000000000	-10.927403787992
2.1340000629425	-11.102011565542
2.1429998874664	-11.277052759407
2.1519999504089	-11.452419608362
2.1610000133514	-11.627992757479
2.1700000762939	-11.803649003629
2.1789999008179	-11.979252402707
2.1879999637604	-12.154657492341
2.1970000267029	-12.329708696337
2.2060000896454	-12.504242295817
2.2149999141693	-12.678080766607
2.2239999771118	-12.851035601631
2.2330000400543	-13.022911488493
2.2420001029968	-13.193495666139
2.2509999275208	-13.362565310524
2.2599999904633	-13.529890721053
2.2690000534058	-13.695226775697
2.2780001163483	-13.858319275475
2.2869999408722	-14.018902604567
2.2960000038147	-14.176706067175
2.3050000667572	-14.331445236045
2.3139998912811	-14.482835607832
2.3229999542236	-14.630583009891
2.3320000171661	-14.774392178536
2.3410000801086	-14.913965235009
2.3499999046326	-15.049006302293
2.3589999675751	-15.179222884013
2.3680000305176	-15.304330410848
2.3770000934601	-15.424051932125
2.3859999179840	-15.538123292583
2.3949999809265	-15.646294804325
2.4040000438690	-15.748337556729
2.4130001068115	-15.844042448132
2.4219999313354	-15.933223515116
2.4309999942780	-16.015721666206
2.4400000572205	-16.091409435036
2.4489998817444	-16.160187481100
2.4579999446869	-16.221985501694
2.4670000076294	-16.276771634118
2.4760000705719	-16.324543797201
2.4849998950958	-16.365334580836
2.4939999580383	-16.399206619948
2.5030000209808	-16.426256864903
2.5120000839233	-16.446611153989
2.5209999084473	-16.460418855133
2.5299999713898	-16.467859979384
2.5390000343323	-16.469135019962
2.5480000972748	-16.464463727526
2.5569999217987	-16.454082013382
2.5659999847412	-16.438240199594
2.5750000476837	-16.417201887940
2.5840001106262	-16.391233611203
2.5929999351501	-16.360609766495
2.6019999980927	-16.325606150171
2.6110000610352	-16.286500051454
2.6199998855591	-16.243563748159
2.6289999485016	-16.197068417433
2.6380000114441	-16.147275123051
2.6470000743866	-16.094445497912
2.6559998989105	-16.038822549025
2.6649999618530	-15.980648411318
2.6740000247955	-15.920147683774
2.6830000877380	-15.857541645158
2.6919999122620	-15.793035752447
2.7009999752045	-15.726825069000
2.7100000381470	-15.659093979310
2.7190001010895	-15.590015234796
2.7279999256134	-15.519750442614
2.7369999885559	-15.448451612800
2.7460000514984	-15.376259840197
2.7550001144409	-15.303303022638
2.7639999389648	-15.229702634511
2.7730000019073	-15.155571476673
2.7820000648499	-15.081009605898
2.7909998893738	-15.006113039187
2.7999999523163	-14.930967152868
2.8090000152588	-14.855650179650
2.8180000782013	-14.780232949645
2.8269999027252	-14.704782979453
2.8359999656677	-14.629357804927
2.8450000286102	-14.554010664794
2.8540000915527	-14.478789187862
2.8629999160767	-14.403737508496
2.8719999790192	-14.328893554969
2.8810000419617	-14.254291522148
2.8900001049042	-14.179963496069
2.8989999294281	-14.105934576075
2.9079999923706	-14.032228749524
2.9170000553131	-13.958869162487
2.9260001182556	-13.885870307921
2.9349999427795	-13.813251689555
2.9440000057220	-13.741022902160
2.9530000686646	-13.669198279490
2.9619998931885	-13.597786195639
2.9709999561310	-13.526793015514
2.9800000190735	-13.456227146661
2.9890000820160	-13.386091740022
2.9979999065399	-13.316392596786
3.0069999694824	-13.247131374689
3.0160000324249	-13.178308650953
3.0250000953674	-13.109926623611
3.0339999198914	-13.041983409752
3.0429999828339	-12.974481114910
3.0520000457764	-12.907416761322
3.0610001087189	-12.840790078131
3.0699999332428	-12.774597153854
3.0789999961853	-12.708836435778
3.0880000591278	-12.643506466365
3.0969998836517	-12.578604313027
3.1059999465942	-12.514124358305
3.1150000095367	-12.450065021107
3.1240000724792	-12.386423538297
3.1329998970032	-12.323195575488
3.1419999599457	-12.260377889400
3.1510000228882	-12.197968583486
3.1600000858307	-12.135963469414
3.1689999103546	-12.074358234458
3.1779999732971	-12.013151643978
3.1870000362396	-11.952339595899
3.1960000991821	-11.891919654353
3.2049999237061	-11.831889127809
3.2139999866486	-11.772246014701
3.2230000495911	-11.712987247004
3.2320001125336	-11.654109348338
3.2409999370575	-11.595612919342
3.2500000000000	-11.537495758176
3.2590000629425	-11.479755519222
3.2679998874664	-11.422390713475
3.2769999504089	-11.365401353161
3.2860000133514	-11.308785745678
3.2950000762939	-11.252541521495
3.3039999008179	-11.196671852028
3.3129999637604	-11.141173873345
3.3220000267029	-11.086047722207
3.3310000896454	-11.031294622141
3.3399999141693	-10.976913874853
3.3489999771118	-10.922905755727
3.3580000400543	-10.869270729463
3.3670001029968	-10.816013212487
3.3759999275208	-10.763129618255
3.3849999904633	-10.710622625876
3.3940000534058	-10.658496410502
3.4030001163483	-10.606747746885
3.4119999408722	-10.555382109672
3.4210000038147	-10.504401447166
3.4300000667572	-10.453803832404
3.4389998912811	-10.403596148234
3.4479999542236	-10.353775511961
3.4570000171661	-10.304349617668
3.4660000801086	-10.255317102301
3.4749999046326	-10.206682276251
3.4839999675751	-10.158446735653
3.4930000305176	-10.110614097178
3.5020000934601	-10.063186307148
3.5109999179840	-10.016165120844
3.5199999809265	-9.9695570553740
3.5290000438690	-9.9233596629594
3.5380001068115	-9.8775790683600
3.5469999313354	-9.8322184089281
3.5559999942780	-9.7872793951242
3.5650000572205	-9.7427658187262
3.5739998817444	-9.6986781312931
3.5829999446869	-9.6550219370946
3.5920000076294	-9.6117995592215
3.6010000705719	-9.5690134781837
3.6099998950958	-9.5266643574989
3.6189999580383	-9.4847581710265
3.6280000209808	-9.4432968186101
3.6370000839233	-9.4022816260824
3.6459999084473	-9.3617154518686
3.6549999713898	-9.3216015880523
3.6640000343323	-9.2819410561340
3.6730000972748	-9.2427377377920
3.6819999217987	-9.2039947854199
3.6909999847412	-9.1657106068168
3.7000000476837	-9.1278899338801
3.7090001106262	-9.0905331091324
3.7179999351501	-9.0536444303692
3.7269999980927	-9.0172235988416
3.7360000610352	-8.9812723912101
3.7449998855591	-8.9457938656140
3.7539999485016	-8.9107873992932
3.7630000114441	-8.8762553799800
3.7720000743866	-8.8421979781299
3.7809998989105	-8.8086166477581
3.7899999618530	-8.7755124493166
3.7990000247955	-8.7428874689265
3.8080000877380	-8.7107395615032
3.8169999122620	-8.6790709573473
3.8259999752045	-8.6478806275614
3.8350000381470	-8.6171707628734
3.8440001010895	-8.5869406126124
3.8529999256134	-8.5571888693331
3.8619999885559	-8.5279163436974
3.8710000514984	-8.4991207710701
3.8800001144409	-8.4708053389688
3.8889999389648	-8.4429658709807
3.8980000019073	-8.4156043783999
3.9070000648499	-8.3887162984096
3.9159998893738	-8.3623037974136
3.9249999523163	-8.3363642703813
3.9340000152588	-8.3108956709855
3.9430000782013	-8.2858958405592
3.9519999027252	-8.2613644707958
3.9609999656677	-8.2373015097468
3.9700000286102	-8.2137003247043
3.9790000915527	-8.1905601424392
3.9879999160767	-8.1678810402722
3.9969999790192	-8.1456594106707
4.0060000419617	-8.1238913073896
4.0149998664856	-8.1025745905112
4.0240001678467	-8.0817063347946
4.0329999923706	-8.0612829395311
4.0419998168945	-8.0413012668445
4.0510001182556	-8.0217587558154
4.0599999427795	-8.0026516046168
4.0689997673035	-7.9839743498222
4.0780000686646	-7.9657261820017
4.0869998931885	-7.9479009816555
4.0960001945496	-7.9304947619424
4.1050000190735	-7.9135040144147
4.1139998435974	-7.8969239257142
4.1230001449585	-7.8807491777455
4.1319999694824	-7.8649764415711
4.1409997940063	-7.8496006074759
4.1500000953674	-7.8346160998475
4.1589999198914	-7.8200180269340
4.1680002212524	-7.8058018214311
4.1770000457764	-7.7919611624805
4.1859998703003	-7.7784912946202
4.1950001716614	-7.7653854169214
4.2039999961853	-7.7526402028273
4.2129998207092	-7.7402477386999
4.2220001220703	-7.7282029895556
4.2309999465942	-7.7164992827486
4.2399997711182	-7.7051319498569
4.2490000724792	-7.6940924292062
4.2579998970032	-7.6833772805880
4.2670001983643	-7.6729778347876
4.2760000228882	-7.6628888354202
4.2849998474121	-7.6531022567320
4.2940001487732	-7.6436119250421
4.3029999732971	-7.6344126714000
4.3119997978210	-7.6254957902797
4.3210000991821	-7.6168548524505
4.3299999237061	-7.6084820319929
4.3390002250671	-7.6003716388157
4.3480000495911	-7.5925168060145
4.3569998741150	-7.5849091434300
4.3660001754761	-7.5775413548692
4.3750000000000	-7.5704069718700
4.3839998245239	-7.5634981015330
4.3930001258850	-7.5568084461678
4.4019999504089	-7.5503287770631
4.4109997749329	-7.5440528972118
4.4200000762939	-7.5379740484089
4.4289999008179	-7.5320831743671
4.4380002021790	-7.5263732931105
4.4470000267029	-7.5208376806130
4.4559998512268	-7.5154694918947
4.4650001525879	-7.5102584472022
4.4739999771118	-7.5052002815851
4.4829998016357	-7.5002868494260
4.4920001029968	-7.4955089419516
4.5009999275208	-7.4908626446791
4.5100002288818	-7.4863372842442
4.5190000534058	-7.4819278566072
4.5279998779297	-7.4776269647494
4.5370001792908	-7.4734263271440
4.5460000038147	-7.4693211753587
4.5549998283386	-7.4653012183194
4.5640001296997	-7.4613640653659
4.5729999542236	-7.4574994841950
4.5819997787476	-7.4537036181343
4.5910000801086	-7.4499659751526
4.5999999046326	-7.4462848455411
4.6090002059937	-7.4426524547352
4.6180000305176	-7.4390609527953
4.6269998550415	-7.4355061510583
4.6360001564026	-7.4319824232485
4.6449999809265	-7.4284834626865
4.6539998054504	-7.4250052404407
4.6630001068115	-7.4215399736280
4.6719999313354	-7.4180841724111
4.6810002326965	-7.4146339417059
4.6900000572205	-7.4111818466685
4.6989998817444	-7.4077263744529
4.7080001831055	-7.4042606951854
4.7170000076294	-7.4007829382164
4.7259998321533	-7.3972871628341
4.7350001335144	-7.3937713042292
4.7439999580383	-7.3902317451534
4.7529997825623	-7.3866639597085
4.7620000839233	-7.3830661936665
4.7709999084473	-7.3794369642878
4.7800002098083	-7.3757715841128
4.7890000343323	-7.3720693734411
4.7979998588562	-7.3683267908070
4.8070001602173	-7.3645439635074
4.8159999847412	-7.3607177643277
4.8249998092651	-7.3568478927195
4.8340001106262	-7.3529338242888
4.8429999351501	-7.3489731523908
4.8520002365112	-7.3449683394550
4.8610000610352	-7.3409162931924
4.8699998855591	-7.3368196917557
4.8790001869202	-7.3326755592704
4.8880000114441	-7.3284889438792
4.8969998359680	-7.3242565016972
4.9060001373291	-7.3199820315845
4.9149999618530	-7.3156648462235
4.9239997863770	-7.3113094703195
4.9330000877380	-7.3069152235382
4.9419999122620	-7.3024860880524
4.9510002136230	-7.2980220868009
4.9600000381470	-7.2935290060634
4.9689998626709	-7.2890069692386
4.9780001640320	-7.2844588870677
4.9869999885559	-7.2798908807827
4.9959998130798	-7.2753050302331
5.0050001144409	-7.2707047067786
5.0139999389648	-7.2660934705246
5.0229997634888	-7.2614746463604
5.0320000648499	-7.2568572722184
5.0409998893738	-7.2522391721058
5.0500001907349	-7.2476307974339
5.0590000152588	-7.2430325353653
5.0679998397827	-7.2384524364624
5.0770001411438	-7.2338951047893
5.0859999656677	-7.2293658305281
5.0949997901917	-7.2248696404870
5.1040000915527	-7.2204115659152
5.1129999160767	-7.2159985690130
5.1220002174377	-7.2116360526814
5.1310000419617	-7.2073298157138
5.1399998664856	-7.2030865245072
5.1490001678467	-7.1989113948773
5.1579999923706	-7.1948124896596
5.1669998168945	-7.1907933759648
5.1760001182556	-7.1868625555812
5.1849999427795	-7.1830262759931
5.1939997673035	-7.1792894155945
5.2030000686646	-7.1756610243227
5.2119998931885	-7.1721462528424
5.2210001945496	-7.1687519756058
5.2300000190735	-7.1654845687494
5.2389998435974	-7.1623496170519
5.2480001449585	-7.1593546298520
5.2569999694824	-7.1565070944026
5.2659997940063	-7.1538114157506
5.2750000953674	-7.1512775828653
5.2839999198914	-7.1489093209691
5.2930002212524	-7.1467120698950
5.3020000457764	-7.1446946770589
5.3109998703003	-7.1428619282693
5.3200001716614	-7.1412216600868
5.3289999961853	-7.1397774871473
5.3379998207092	-7.1385373453010
5.3470001220703	-7.1375060913757
5.3559999465942	-7.1366908469705
5.3649997711182	-7.1360971095713
5.3740000724792	-7.1357281181664
5.3829998970032	-7.1355918786341
5.3920001983643	-7.1356919219618
5.4010000228882	-7.1360344276451
5.4099998474121	-7.1366248234740
5.4190001487732	-7.1374663973788
5.4279999732971	-7.1385641027501
5.4369997978210	-7.1399245965692
5.4460000991821	-7.1415476613530
5.4549999237061	-7.1434417025249
5.4640002250671	-7.1456071255284
5.4730000495911	-7.1480492360168
5.4819998741150	-7.1507713808014
5.4910001754761	-7.1537774682013
5.5000000000000	-7.1570686726997
5.5089998245239	-7.1606479077077
5.5180001258850	-7.1645167288920
5.5269999504089	-7.1686802176419
5.5359997749329	-7.1731373450565
5.5450000762939	-7.1778918347362
5.5539999008179	-7.1829429857669
5.5630002021790	-7.1882926021224
5.5720000267029	-7.1939405108298
5.5809998512268	-7.1998889011944
5.5900001525879	-7.2061358260557
5.5989999771118	-7.2126806199513
5.6079998016357	-7.2195248229294
5.6170001029968	-7.2266668032204
5.6259999275208	-7.2341022149853
5.6350002288818	-7.2418338206121
5.6440000534058	-7.2498572605311
5.6529998779297	-7.2581695807635
5.6620001792908	-7.2667686182223
5.6710000038147	-7.2756504156941
5.6799998283386	-7.2848133417572
5.6890001296997	-7.2942510059257
5.6979999542236	-7.3039591351184
5.7069997787476	-7.3139347609690
5.7160000801086	-7.3241696756944
5.7249999046326	-7.3346615268663
5.7340002059937	-7.3454015318198
5.7430000305176	-7.3563838127341
5.7519998550415	-7.3676014079464
5.7610001564026	-7.3790476214737
5.7699999809265	-7.3907126166509
5.7789998054504	-7.4025886640785
5.7880001068115	-7.4146686835281
5.7969999313354	-7.4269419044007
5.8060002326965	-7.4393969772587
5.8150000572205	-7.4520270652742
5.8239998817444	-7.4648176596097
5.8330001831055	-7.4777608254900
5.8420000076294	-7.4908420303945
5.8509998321533	-7.5040522897488
5.8600001335144	-7.5173769198718
5.8689999580383	-7.5308039314265
5.8779997825623	-7.5443186514197
5.8870000839233	-7.5579082841020
5.8959999084473	-7.5715572517941
5.9050002098083	-7.5852515993785
5.9140000343323	-7.5989767229586
5.9229998588562	-7.6127149675766
5.9320001602173	-7.6264532090280
5.9409999847412	-7.6401734423619
5.9499998092651	-7.6538575765106
5.9590001106262	-7.6674924001424
5.9679999351501	-7.6810562964706
5.9770002365112	-7.6945333688258
5.9860000610352	-7.7079058020104
5.9949998855591	-7.7211564396996
6.0040001869202	-7.7342632293306
6.0130000114441	-7.7472118260220
6.0219998359680	-7.7599800543303
6.0310001373291	-7.7725474574282
6.0399999618530	-7.7848990726902
6.0489997863770	-7.7970147433296
6.0580000877380	-7.8088717457575
6.0669999122620	-7.8204523815812
6.0760002136230	-7.8317377929302
6.0850000381470	-7.8427077079296
6.0939998626709	-7.8533443358656
6.1030001640320	-7.8636251790589
6.1119999885559	-7.8735359127154
6.1209998130798	-7.8830525005938
6.1300001144409	-7.8921583768377
6.1389999389648	-7.9008350157345
6.1479997634888	-7.9090663422398
6.1570000648499	-7.9168310322168
6.1659998893738	-7.9241117954481
6.1750001907349	-7.9308958597211
6.1840000152588	-7.9371618499556
6.1929998397827	-7.9428957334601
6.2020001411438	-7.9480837288378
6.2109999656677	-7.9527083410504
6.2199997901917	-7.9567552588853
6.2290000915527	-7.9602135035996
6.2379999160767	-7.9630681993318
6.2470002174377	-7.9653081625028
6.2560000419617	-7.9669211277698
6.2649998664856	-7.9678986042264
6.2740001678467	-7.9682266559504
6.2829999923706	-7.9679020861903
6.2919998168945	-7.9669129129734
6.3010001182556	-7.9652531917328
6.3099999427795	-7.9629179382217
6.3189997673035	-7.9598995018893
6.3280000686646	-7.9561961463763
6.3369998931885	-7.9518036868609
6.3460001945496	-7.9467186151547
6.3550000190735	-7.9409423160156
6.3639998435974	-7.9344728978291
6.3730001449585	-7.9273090943636
6.3819999694824	-7.9194566010157
6.3909997940063	-7.9109154196593
