#Parameters = {h=1.5; l=55; n=17.8; w=50; wp=3; x=20}
#"Frequency / GHz"	"S1,1 (524) [Magnitude / dB]"
#-----------------------------------------------
1.0000000000000	-0.46545175966603
1.0089999437332	-0.46784667311875
1.0180000066757	-0.47103610679546
1.0269999504089	-0.47502786792428
1.0360000133514	-0.47983365229620
1.0449999570847	-0.48546420169676
1.0540000200272	-0.49192769136638
1.0629999637604	-0.49923518649686
1.0720000267029	-0.50739688102655
1.0809999704361	-0.51642379038143
1.0900000333786	-0.52632557749047
1.0989999771118	-0.53711327317123
1.1080000400543	-0.54879791150100
1.1169999837875	-0.56138743741425
1.1260000467300	-0.57489591371149
1.1349999904633	-0.58933219687469
1.1440000534058	-0.60470945960620
1.1529999971390	-0.62103609540257
1.1619999408722	-0.63832550450569
1.1710000038147	-0.65658660046371
1.1799999475479	-0.67583180973669
1.1890000104904	-0.69607480514321
1.1979999542236	-0.71732209610640
1.2070000171661	-0.73958900737279
1.2159999608994	-0.76288709229491
1.2250000238419	-0.78722807658246
1.2339999675751	-0.81262119590258
1.2430000305176	-0.83908063348551
1.2519999742508	-0.86661599651683
1.2610000371933	-0.89524271602913
1.2699999809265	-0.92497133343921
1.2790000438690	-0.95581536747209
1.2879999876022	-0.98778204348076
1.2970000505447	-1.0208911518672
1.3059999942780	-1.0551475799362
1.3150000572205	-1.0905685432402
1.3240000009537	-1.1271650109020
1.3329999446869	-1.1649495066248
1.3420000076294	-1.2039335662066
1.3509999513626	-1.2441314529176
1.3600000143051	-1.2855533482017
1.3689999580383	-1.3282130621955
1.3780000209808	-1.3721241828121
1.3869999647141	-1.4172976562966
1.3960000276566	-1.4637453731073
1.4049999713898	-1.5114817919545
1.4140000343323	-1.5605178218621
1.4229999780655	-1.6108661403912
1.4320000410080	-1.6625382381805
1.4409999847412	-1.7155482784241
1.4500000476837	-1.7699077559594
1.4589999914169	-1.8256281781676
1.4680000543594	-1.8827219259622
1.4769999980927	-1.9412022725414
1.4859999418259	-2.0010777711913
1.4950000047684	-2.0623634817755
1.5039999485016	-2.1250706671652
1.5130000114441	-2.1892116957077
1.5219999551773	-2.2547957165952
1.5310000181198	-2.3218353656545
1.5399999618530	-2.3903426133472
1.5490000247955	-2.4603254103072
1.5579999685287	-2.5318007949914
1.5670000314713	-2.6047753362474
1.5759999752045	-2.6792596922799
1.5850000381470	-2.7552658748581
1.5939999818802	-2.8328029771964
1.6030000448227	-2.9118831034273
1.6119999885559	-2.9925155111499
1.6210000514984	-3.0747099582151
1.6299999952316	-3.1584745637583
1.6390000581741	-3.2438222987110
1.6480000019073	-3.3307610797968
1.6569999456406	-3.4192974628124
1.6660000085831	-3.5094443785585
1.6749999523163	-3.6012071175092
1.6840000152588	-3.6945968044909
1.6929999589920	-3.7896213274125
1.7020000219345	-3.8862865429455
1.7109999656677	-3.9846021556966
1.7200000286102	-4.0845757656161
1.7289999723434	-4.1862136998177
1.7380000352859	-4.2895240851925
1.7469999790192	-4.3945128486556
1.7560000419617	-4.5011862514000
1.7649999856949	-4.6095514911642
1.7740000486374	-4.7196137299249
1.7829999923706	-4.8313772800117
1.7920000553131	-4.9448488366827
1.8009999990463	-5.0600325921996
1.8099999427795	-5.1769329489994
1.8190000057220	-5.2955537694576
1.8279999494553	-5.4158986435058
1.8370000123978	-5.5379696979625
1.8459999561310	-5.6617693148979
1.8550000190735	-5.7873001884663
1.8639999628067	-5.9145634136263
1.8730000257492	-6.0435580346789
1.8819999694824	-6.1742852213340
1.8910000324249	-6.3067440058694
1.8999999761581	-6.4409304518880
1.9090000391006	-6.5768436162663
1.9179999828339	-6.7144786561615
1.9270000457764	-6.8538317375894
1.9359999895096	-6.9948942334057
1.9450000524521	-7.1376598251555
1.9539999961853	-7.2821198703660
1.9630000591278	-7.4282617021881
1.9720000028610	-7.5760740753974
1.9809999465942	-7.7255433528114
1.9900000095367	-7.8766502034756
1.9989999532700	-8.0293769434574
2.0079998970032	-8.1837024783056
2.0169999599457	-8.3396007721048
2.0260000228882	-8.4970453948365
2.0350000858307	-8.6560041169985
2.0439999103546	-8.8164429171351
2.0529999732971	-8.9783240219581
2.0620000362396	-9.1416029881085
2.0710000991821	-9.3062322705698
2.0799999237061	-9.4721600483598
2.0889999866486	-9.6393241504066
2.0980000495911	-9.8076637979196
2.1070001125336	-9.9771034519755
2.1159999370575	-10.147567948384
2.1250000000000	-10.318968118053
2.1340000629425	-10.491209955796
2.1429998874664	-10.664188460928
2.1519999504089	-10.837791047381
2.1610000133514	-11.011892821178
2.1700000762939	-11.186359519241
2.1789999008179	-11.361043762760
2.1879999637604	-11.535785889774
2.1970000267029	-11.710414175438
2.2060000896454	-11.884742193516
2.2149999141693	-12.058569974175
2.2239999771118	-12.231681931139
2.2330000400543	-12.403850160404
2.2420001029968	-12.574826468272
2.2509999275208	-12.744350053134
2.2599999904633	-12.912145666854
2.2690000534058	-13.077920557538
2.2780001163483	-13.241367403734
2.2869999408722	-13.402166360469
2.2960000038147	-13.559982812622
2.3050000667572	-13.714473646324
2.3139998912811	-13.865280840879
2.3229999542236	-14.012046483827
2.3320000171661	-14.154402336417
2.3410000801086	-14.291979708086
2.3499999046326	-14.424415097935
2.3589999675751	-14.551341990984
2.3680000305176	-14.672415946661
2.3770000934601	-14.787295261812
2.3859999179840	-14.895662721339
2.3949999809265	-14.997222771162
2.4040000438690	-15.091705378521
2.4130001068115	-15.178872261672
2.4219999313354	-15.258522850331
2.4309999942780	-15.330492241949
2.4400000572205	-15.394658838944
2.4489998817444	-15.450944468706
2.4579999446869	-15.499313047506
2.4670000076294	-15.539776597798
2.4760000705719	-15.572390097479
2.4849998950958	-15.597255757206
2.4939999580383	-15.614511643045
2.5030000209808	-15.624340860742
2.5120000839233	-15.626958374595
2.5209999084473	-15.622613961198
2.5299999713898	-15.611584327316
2.5390000343323	-15.594169085780
2.5480000972748	-15.570688073869
2.5569999217987	-15.541476184981
2.5659999847412	-15.506878041441
2.5750000476837	-15.467243079792
2.5840001106262	-15.422927070197
2.5929999351501	-15.374279347238
2.6019999980927	-15.321651599454
2.6110000610352	-15.265383277764
2.6199998855591	-15.205807694591
2.6289999485016	-15.143244646660
2.6380000114441	-15.078000938964
2.6470000743866	-15.010374052364
2.6559998989105	-14.940641762455
2.6649999618530	-14.869067555870
2.6740000247955	-14.795901934827
2.6830000877380	-14.721377839309
2.6919999122620	-14.645711349336
2.7009999752045	-14.569103525347
2.7100000381470	-14.491742545228
2.7190001010895	-14.413802580942
2.7279999256134	-14.335436942454
2.7369999885559	-14.256796762944
2.7460000514984	-14.178010377979
2.7550001144409	-14.099200474721
2.7639999389648	-14.020473827148
2.7730000019073	-13.941930857995
2.7820000648499	-13.863659691175
2.7909998893738	-13.785738783567
2.7999999523163	-13.708240587886
2.8090000152588	-13.631225809939
2.8180000782013	-13.554749779158
2.8269999027252	-13.478860884950
2.8359999656677	-13.403601123298
2.8450000286102	-13.329006628181
2.8540000915527	-13.255107924021
2.8629999160767	-13.181929351893
2.8719999790192	-13.109494449454
2.8810000419617	-13.037817103709
2.8900001049042	-12.966913440087
2.8989999294281	-12.896789867206
2.9079999923706	-12.827454570516
2.9170000553131	-12.758910999475
2.9260001182556	-12.691158564975
2.9349999427795	-12.624198295297
2.9440000057220	-12.558024997985
2.9530000686646	-12.492632945045
2.9619998931885	-12.428013864055
2.9709999561310	-12.364161437031
2.9800000190735	-12.301062145009
2.9890000820160	-12.238706069582
2.9979999065399	-12.177080547045
3.0069999694824	-12.116171054206
3.0160000324249	-12.055962998429
3.0250000953674	-11.996442510882
3.0339999198914	-11.937589054232
3.0429999828339	-11.879390227054
3.0520000457764	-11.821828709164
3.0610001087189	-11.764885100369
3.0699999332428	-11.708542140959
3.0789999961853	-11.652780958795
3.0880000591278	-11.597586245643
3.0969998836517	-11.542937325443
3.1059999465942	-11.488815562988
3.1150000095367	-11.435203331440
3.1240000724792	-11.382082320683
3.1329998970032	-11.329433147952
3.1419999599457	-11.277240159367
3.1510000228882	-11.225483178663
3.1600000858307	-11.174147048139
3.1689999103546	-11.123213110844
3.1779999732971	-11.072663603268
3.1870000362396	-11.022483640398
3.1960000991821	-10.972655112868
3.2049999237061	-10.923163813467
3.2139999866486	-10.873994893944
3.2230000495911	-10.825133436568
3.2320001125336	-10.776562286529
3.2409999370575	-10.728270526969
3.2500000000000	-10.680246136238
3.2590000629425	-10.632472757588
3.2679998874664	-10.584939625641
3.2769999504089	-10.537638154527
3.2860000133514	-10.490553290847
3.2950000762939	-10.443677094749
3.3039999008179	-10.397001430489
3.3129999637604	-10.350515250596
3.3220000267029	-10.304208615060
3.3310000896454	-10.258079976112
3.3399999141693	-10.212117111285
3.3489999771118	-10.166314479858
3.3580000400543	-10.120669606585
3.3670001029968	-10.075174989444
3.3759999275208	-10.029827063607
3.3849999904633	-9.9846205597632
3.3940000534058	-9.9395565291937
3.4030001163483	-9.8946316004832
3.4119999408722	-9.8498420686861
3.4210000038147	-9.8051895115120
3.4300000667572	-9.7606706701690
3.4389998912811	-9.7162898212679
3.4479999542236	-9.6720459942972
3.4570000171661	-9.6279375816313
3.4660000801086	-9.5839722713760
3.4749999046326	-9.5401510761858
3.4839999675751	-9.4964760381312
3.4930000305176	-9.4529496253986
3.5020000934601	-9.4095785342379
3.5109999179840	-9.3663651005753
3.5199999809265	-9.3233179638619
3.5290000438690	-9.2804380974854
3.5380001068115	-9.2377358172122
3.5469999313354	-9.1952140518043
3.5559999942780	-9.1528807888554
3.5650000572205	-9.1107431319830
3.5739998817444	-9.0688087475569
3.5829999446869	-9.0270835264443
3.5920000076294	-8.9855784097913
3.6010000705719	-8.9442981285324
3.6099998950958	-8.9032508690922
3.6189999580383	-8.8624480722421
3.6280000209808	-8.8218977441606
3.6370000839233	-8.7816072087785
3.6459999084473	-8.7415843201957
3.6549999713898	-8.7018418142802
3.6640000343323	-8.6623860937993
3.6730000972748	-8.6232258087732
3.6819999217987	-8.5843716569398
3.6909999847412	-8.5458332963840
3.7000000476837	-8.5076180475205
3.7090001106262	-8.4697350056090
3.7179999351501	-8.4321955245783
3.7269999980927	-8.3950071305139
3.7360000610352	-8.3581783680912
3.7449998855591	-8.3217178982641
3.7539999485016	-8.2856365357786
3.7630000114441	-8.2499400459451
3.7720000743866	-8.2146393000734
3.7809998989105	-8.1797414955426
3.7899999618530	-8.1452554654774
3.7990000247955	-8.1111888542106
3.8080000877380	-8.0775484035605
3.8169999122620	-8.0443418763853
3.8259999752045	-8.0115774809143
3.8350000381470	-7.9792634040495
3.8440001010895	-7.9474053174040
3.8529999256134	-7.9160104357530
3.8619999885559	-7.8850837083795
3.8710000514984	-7.8546305512779
3.8800001144409	-7.8246627047245
3.8889999389648	-7.7951790543176
3.8980000019073	-7.7661889923696
3.9070000648499	-7.7376963891956
3.9159998893738	-7.7097066036038
3.9249999523163	-7.6822235621347
3.9340000152588	-7.6552507537821
3.9430000782013	-7.6287941119809
3.9519999027252	-7.6028567685560
3.9609999656677	-7.5774422871075
3.9700000286102	-7.5525531503955
3.9790000915527	-7.5281930517470
3.9879999160767	-7.5043634932475
3.9969999790192	-7.4810657331850
4.0060000419617	-7.4583051289610
4.0149998664856	-7.4360801828019
4.0240001678467	-7.4143943122494
4.0329999923706	-7.3932480607709
4.0419998168945	-7.3726405996870
4.0510001182556	-7.3525735082817
4.0599999427795	-7.3330498206035
4.0689997673035	-7.3140639340516
4.0780000686646	-7.2956190460901
4.0869998931885	-7.2777137883606
4.0960001945496	-7.2603460771577
4.1050000190735	-7.2435167671408
4.1139998435974	-7.2272219527504
4.1230001449585	-7.2114605518278
4.1319999694824	-7.1962319341104
4.1409997940063	-7.1815309669003
4.1500000953674	-7.1673570007304
4.1589999198914	-7.1537057938477
4.1680002212524	-7.1405758513405
4.1770000457764	-7.1279608002936
4.1859998703003	-7.1158579714579
4.1950001716614	-7.1042638373408
4.2039999961853	-7.0931743142228
4.2129998207092	-7.0825846435596
4.2220001220703	-7.0724884331115
4.2309999465942	-7.0628830281723
4.2399997711182	-7.0537612554235
4.2490000724792	-7.0451163536696
4.2579998970032	-7.0369440418134
4.2670001983643	-7.0292387190900
4.2760000228882	-7.0219941825491
4.2849998474121	-7.0152014932703
4.2940001487732	-7.0088551493553
4.3029999732971	-7.0029490265458
4.3119997978210	-6.9974757148729
4.3210000991821	-6.9924257245447
4.3299999237061	-6.9877935058361
4.3390002250671	-6.9835701358740
4.3480000495911	-6.9797473303142
4.3569998741150	-6.9763181452936
4.3660001754761	-6.9732728173909
4.3750000000000	-6.9706030853420
4.3839998245239	-6.9683000164554
4.3930001258850	-6.9663545418053
4.4019999504089	-6.9647589485545
4.4109997749329	-6.9635009483324
4.4200000762939	-6.9625750614075
4.4289999008179	-6.9619678015570
4.4380002021790	-6.9616726706240
4.4470000267029	-6.9616779886558
4.4559998512268	-6.9619749581083
4.4650001525879	-6.9625519919008
4.4739999771118	-6.9634009667282
4.4829998016357	-6.9645103412311
4.4920001029968	-6.9658714922351
4.5009999275208	-6.9674722439136
4.5100002288818	-6.9693038022135
4.5190000534058	-6.9713562996806
4.5279998779297	-6.9736158756385
4.5370001792908	-6.9760758503552
4.5460000038147	-6.9787245228760
4.5549998283386	-6.9815519583436
4.5640001296997	-6.9845456476113
4.5729999542236	-6.9876981333463
4.5819997787476	-6.9909982626571
4.5910000801086	-6.9944347720743
4.5999999046326	-6.9979976322075
4.6090002059937	-7.0016784830352
4.6180000305176	-7.0054651306512
4.6269998550415	-7.0093493347742
4.6360001564026	-7.0133200480944
4.6449999809265	-7.0173690563115
4.6539998054504	-7.0214861380055
4.6630001068115	-7.0256607768343
4.6719999313354	-7.0298843260109
4.6810002326965	-7.0341507824985
4.6900000572205	-7.0384468319237
4.6989998817444	-7.0427665197977
4.7080001831055	-7.0471013829021
4.7170000076294	-7.0514413071898
4.7259998321533	-7.0557796375142
4.7350001335144	-7.0601102824929
4.7439999580383	-7.0644229868232
4.7529997825623	-7.0687108747692
4.7620000839233	-7.0729686672522
4.7709999084473	-7.0771885334664
4.7800002098083	-7.0813647321888
4.7890000343323	-7.0854894564447
4.7979998588562	-7.0895602824575
4.8070001602173	-7.0935698465003
4.8159999847412	-7.0975123999533
4.8249998092651	-7.1013836165406
4.8340001106262	-7.1051800615755
4.8429999351501	-7.1088975124362
4.8520002365112	-7.1125319415164
4.8610000610352	-7.1160790214980
4.8699998855591	-7.1195371764642
4.8790001869202	-7.1229027130613
4.8880000114441	-7.1261741507076
4.8969998359680	-7.1293502239646
4.9060001373291	-7.1324280517961
4.9149999618530	-7.1354066855501
4.9239997863770	-7.1382863653312
4.9330000877380	-7.1410670887627
4.9419999122620	-7.1437471634951
4.9510002136230	-7.1463277450955
4.9600000381470	-7.1488096108280
4.9689998626709	-7.1511945608417
4.9780001640320	-7.1534837344250
4.9869999885559	-7.1556787697963
4.9959998130798	-7.1577827112320
5.0050001144409	-7.1597974777587
5.0139999389648	-7.1617272141741
5.0229997634888	-7.1635728607688
5.0320000648499	-7.1653408973138
5.0409998893738	-7.1670343460118
5.0500001907349	-7.1686579966322
5.0590000152588	-7.1702165802329
5.0679998397827	-7.1717143364446
5.0770001411438	-7.1731583589362
5.0859999656677	-7.1745509821062
5.0949997901917	-7.1759016883003
5.1040000915527	-7.1772157281769
5.1129999160767	-7.1784998629766
5.1220002174377	-7.1797602136241
5.1310000419617	-7.1810039375869
5.1399998664856	-7.1822399478921
5.1490001678467	-7.1834742230693
5.1579999923706	-7.1847152924906
5.1669998168945	-7.1859710701168
5.1760001182556	-7.1872492356471
5.1849999427795	-7.1885604645729
5.1939997673035	-7.1899106779533
5.2030000686646	-7.1913091608875
5.2119998931885	-7.1927679137911
5.2210001945496	-7.1942917180308
5.2300000190735	-7.1958924594650
5.2389998435974	-7.1975793636534
5.2480001449585	-7.1993623779803
5.2569999694824	-7.2012484240487
5.2659997940063	-7.2032501794002
5.2750000953674	-7.2053752565692
5.2839999198914	-7.2076361049117
5.2930002212524	-7.2100398556064
5.3020000457764	-7.2125973376965
5.3109998703003	-7.2153197313730
5.3200001716614	-7.2182150801786
5.3289999961853	-7.2212942080089
5.3379998207092	-7.2245656441714
5.3470001220703	-7.2280418048082
5.3559999465942	-7.2317307389606
5.3649997711182	-7.2356417565177
5.3740000724792	-7.2397854489900
5.3829998970032	-7.2441715347363
5.3920001983643	-7.2488083680853
5.4010000228882	-7.2537073303489
5.4099998474121	-7.2588751958669
5.4190001487732	-7.2643231597673
5.4279999732971	-7.2700567998336
5.4369997978210	-7.2760899471685
5.4460000991821	-7.2824266544554
5.4549999237061	-7.2890765877593
5.4640002250671	-7.2960497359453
5.4730000495911	-7.3033506405033
5.4819998741150	-7.3109906451608
5.4910001754761	-7.3189747049668
5.5000000000000	-7.3273108955832
5.5089998245239	-7.3360062068935
5.5180001258850	-7.3450670502977
5.5269999504089	-7.3544997969346
5.5359997749329	-7.3643091881506
5.5450000762939	-7.3745021427249
5.5539999008179	-7.3850846690669
5.5630002021790	-7.3960585803807
5.5720000267029	-7.4074321553291
5.5809998512268	-7.4192067847747
5.5900001525879	-7.4313861213770
5.5989999771118	-7.4439753382607
5.6079998016357	-7.4569762466869
5.6170001029968	-7.4703896760723
5.6259999275208	-7.4842194923293
5.6350002288818	-7.4984658582425
5.6440000534058	-7.5131297800845
5.6529998779297	-7.5282133216067
5.6620001792908	-7.5437127054480
5.6710000038147	-7.5596288733218
5.6799998283386	-7.5759620805225
5.6890001296997	-7.5927061446213
5.6979999542236	-7.6098603469973
5.7069997787476	-7.6274225239523
5.7160000801086	-7.6453874477762
5.7249999046326	-7.6637502884057
5.7340002059937	-7.6825059935601
5.7430000305176	-7.7016471117622
5.7519998550415	-7.7211674027129
5.7610001564026	-7.7410613449843
5.7699999809265	-7.7613171290022
5.7789998054504	-7.7819259229409
5.7880001068115	-7.8028800636484
5.7969999313354	-7.8241661008886
5.8060002326965	-7.8457741657987
5.8150000572205	-7.8676897539814
5.8239998817444	-7.8898991516973
5.8330001831055	-7.9123899943058
5.8420000076294	-7.9351451716344
5.8509998321533	-7.9581472987820
5.8600001335144	-7.9813824646870
5.8689999580383	-8.0048315243550
5.8779997825623	-8.0284733382191
5.8870000839233	-8.0522885090348
5.8959999084473	-8.0762564678709
5.9050002098083	-8.1003559022533
5.9140000343323	-8.1245625423348
5.9229998588562	-8.1488529266200
5.9320001602173	-8.1732018817580
5.9409999847412	-8.1975848684810
5.9499998092651	-8.2219736745546
5.9590001106262	-8.2463428663724
5.9679999351501	-8.2706586189028
5.9770002365112	-8.2948981773176
5.9860000610352	-8.3190277752496
5.9949998855591	-8.3430153435514
6.0040001869202	-8.3668313089320
6.0130000114441	-8.3904436577824
6.0219998359680	-8.4138163193387
6.0310001373291	-8.4369170465516
6.0399999618530	-8.4597119877506
6.0489997863770	-8.4821645711782
6.0580000877380	-8.5042429964603
6.0669999122620	-8.5259067675083
6.0760002136230	-8.5471229979121
6.0850000381470	-8.5678540213195
6.0939998626709	-8.5880623119070
6.1030001640320	-8.6077147845892
6.1119999885559	-8.6267739492118
6.1209998130798	-8.6452004079709
6.1300001144409	-8.6629632963172
6.1389999389648	-8.6800211753487
6.1479997634888	-8.6963443003892
6.1570000648499	-8.7118946305045
6.1659998893738	-8.7266387262371
6.1750001907349	-8.7405425921909
6.1840000152588	-8.7535767090032
6.1929998397827	-8.7657065210166
6.2020001411438	-8.7769072033277
6.2109999656677	-8.7871427047497
6.2199997901917	-8.7963888556087
6.2290000915527	-8.8046217674675
6.2379999160767	-8.8118113109638
6.2470002174377	-8.8179404793956
6.2560000419617	-8.8229860503987
6.2649998664856	-8.8269249985965
6.2740001678467	-8.8297459891505
6.2829999923706	-8.8314284896302
6.2919998168945	-8.8319626852483
6.3010001182556	-8.8313349128361
6.3099999427795	-8.8295358695351
6.3189997673035	-8.8265601291013
6.3280000686646	-8.8224012697688
6.3369998931885	-8.8170578716994
6.3460001945496	-8.8105299556033
6.3550000190735	-8.8028186613963
6.3639998435974	-8.7939271564305
6.3730001449585	-8.7838639936016
6.3819999694824	-8.7726366125282
6.3909997940063	-8.7602545266787
